Timestamp,LO_plus,LO_minus,Raw_ADC,Voltage_mV
0.013047456741333008,1,1,10505,1313.125
0.014861822128295898,1,0,8684,1085.500
0.0173642635345459,0,0,12180,1522.500
0.02516961097717285,0,0,16120,2015.000
0.03298330307006836,1,1,8936,1117.000
0.04079484939575195,0,0,15321,1915.125
0.04860830307006836,0,0,14071,1758.875
0.05640816688537598,0,0,9537,1192.125
0.06423830986022949,0,0,16022,2002.750
0.07205581665039062,1,1,9550,1193.750
0.07986569404602051,0,0,14838,1854.750
0.0876772403717041,0,0,14807,1850.875
0.0954887866973877,0,0,7689,961.125
0.10330033302307129,0,0,15927,1990.875
0.11111688613891602,0,0,11173,1396.625
0.1189260482788086,0,0,14374,1796.750
0.126739501953125,0,0,15961,1995.125
0.13454794883728027,1,1,8093,1011.625
0.1423628330230713,0,0,15764,1970.500
0.1501786708831787,0,0,11982,1497.750
0.1579885482788086,0,0,13430,1678.750
0.16580414772033691,0,0,16133,2016.625
0.17361044883728027,1,1,8695,1086.875
0.1814255714416504,0,0,15466,1933.250
0.1892402172088623,0,0,13469,1683.625
0.1970529556274414,0,0,12317,1539.625
0.2048628330230713,0,0,16150,2018.750
0.2126750946044922,1,1,9892,1236.500
0.22048687934875488,0,0,15039,1879.875
0.2283031940460205,0,0,14211,1776.375
0.23611068725585938,0,0,10473,1309.125
0.2439260482788086,0,0,16001,2000.125
0.2517380714416504,0,0,10807,1350.875
0.2595515251159668,0,0,14441,1805.125
0.2673649787902832,0,0,15459,1932.375
0.2751743793487549,0,1,9079,1134.875
0.2829878330230713,0,0,15857,1982.125
0.2907986640930176,0,0,12349,1543.625
0.2986114025115967,0,0,13644,1705.500
0.3064281940460205,0,0,15794,1974.250
0.3142375946044922,1,1,7965,995.625
0.3220503330230713,0,0,15540,1942.500
0.3298625946044922,0,0,13821,1727.625
0.33768343925476074,0,0,12711,1588.875
0.3454856872558594,0,0,16173,2021.625
0.35329771041870117,1,1,8660,1082.500
0.3611118793487549,0,0,15128,1891.000
0.3692622184753418,0,0,14479,1809.875
0.37686848640441895,0,0,11015,1376.875
0.38456296920776367,0,0,16176,2022.000
0.3923680782318115,1,1,9714,1214.250
0.4001781940460205,0,0,14460,1807.500
0.4079878330230713,0,0,14716,1839.500
0.4158017635345459,0,0,8636,1079.500
0.4236104488372803,0,0,16049,2006.125
0.4314870834350586,0,0,11079,1384.875
0.43924665451049805,0,0,13826,1728.250
0.4470517635345459,0,0,15716,1964.500
0.4548623561859131,1,1,7907,988.375
0.4626739025115967,0,0,15862,1982.750
0.4704885482788086,0,0,11713,1464.125
0.4783008098602295,0,0,12686,1585.750
0.4861140251159668,0,0,16201,2025.125
0.4939243793487549,1,1,8833,1104.125
0.5017380714416504,0,0,15653,1956.625
0.5095584392547607,0,0,12797,1599.625
0.5173637866973877,0,0,11065,1383.125
0.5251748561859131,0,0,16179,2022.375
0.5329868793487549,1,1,9663,1207.875
0.5408005714416504,0,0,15220,1902.500
0.5486114025115967,0,0,14422,1802.750
0.5564277172088623,0,0,8629,1078.625
0.5642359256744385,0,0,16042,2005.250
0.5720508098602295,1,1,10481,1310.125
0.5798642635345459,0,0,14741,1842.625
0.5876967906951904,0,0,15862,1982.750
0.5956244468688965,0,0,8276,1034.500
0.6034126281738281,0,0,15923,1990.375
0.6112174987792969,0,0,11780,1472.500
0.619035005569458,0,0,13854,1731.750
0.6268465518951416,0,0,14930,1866.250
0.6346554756164551,1,1,7446,930.750
0.642467737197876,0,0,15598,1949.750
0.6502788066864014,0,0,13303,1662.875
0.6580982208251953,0,0,13113,1639.125
0.6659080982208252,0,0,15957,1994.625
0.6737203598022461,1,1,9057,1132.125
0.681523323059082,0,0,15228,1903.500
0.6893510818481445,0,0,13373,1671.625
0.6972153186798096,0,0,11358,1419.750
0.7050137519836426,0,0,16173,2021.625
0.712834358215332,1,1,10378,1297.250
0.7206335067749023,0,0,14845,1855.625
0.7284481525421143,0,0,15120,1890.000
0.7362594604492188,0,0,10058,1257.250
0.744063138961792,0,0,15978,1997.250
0.7518932819366455,0,0,11728,1466.000
0.7597043514251709,0,0,14170,1771.250
0.7675058841705322,0,0,15768,1971.000
0.7753696441650391,0,0,8525,1065.625
0.7831363677978516,0,0,15717,1964.625
0.7909567356109619,0,0,12518,1564.750
0.7987759113311768,0,0,13105,1638.125
0.8065805435180664,0,0,16041,2005.125
0.8143839836120605,1,1,8230,1028.750
0.822197675704956,0,0,15319,1914.875
0.8300161361694336,0,0,13529,1691.125
0.8378422260284424,0,0,11730,1466.250
0.8456370830535889,0,0,16186,2023.250
0.8534471988677979,1,1,9095,1136.875
0.8612592220306396,0,0,14923,1865.375
0.8690750598907471,0,0,15040,1880.000
0.8768837451934814,0,0,10326,1290.750
0.8846943378448486,0,0,16156,2019.500
0.8925089836120605,1,1,10345,1293.125
0.9003617763519287,0,0,14206,1775.750
0.9081358909606934,0,0,15323,1915.375
0.9159533977508545,0,0,8125,1015.625
0.923757791519165,0,0,15954,1994.250
0.9315617084503174,0,0,10859,1357.375
0.9393856525421143,0,0,13181,1647.625
0.9472038745880127,0,0,16010,2001.250
0.9550049304962158,1,1,8192,1024.000
0.962822437286377,0,0,15738,1967.250
0.9706292152404785,0,0,11937,1492.125
0.9784398078918457,0,0,11857,1482.125
0.9862532615661621,0,0,16162,2020.250
0.9940705299377441,1,1,8876,1109.500
1.0018870830535889,0,0,15445,1930.625
1.009702444076538,0,0,13296,1662.000
1.0175158977508545,0,0,10181,1272.625
1.0253632068634033,0,0,16157,2019.625
1.033139944076538,1,1,10411,1301.375
1.0409471988677979,0,0,15081,1885.125
1.0487608909606934,0,0,14402,1800.250
1.056572437286377,0,0,8358,1044.750
1.0643870830535889,0,0,15988,1998.500
1.0721991062164307,0,0,10884,1360.500
1.0800142288208008,0,0,14329,1791.125
1.0878243446350098,0,0,15202,1900.250
1.0956394672393799,0,0,7941,992.625
1.103447675704956,0,0,15768,1971.000
1.1112675666809082,0,0,11887,1485.875
1.1190812587738037,0,0,13528,1691.000
1.126880407333374,0,0,15893,1986.625
1.134699821472168,1,1,8866,1108.250
1.1425094604492188,0,0,15501,1937.625
1.15032958984375,0,0,13118,1639.750
1.158132791519165,0,0,12421,1552.625
1.165954351425171,0,0,16222,2027.750
1.1737582683563232,1,1,10349,1293.625
1.181565284729004,0,0,15193,1899.125
1.1893928050994873,0,0,14838,1854.750
1.1972033977508545,0,0,11198,1399.750
1.2050142288208008,0,0,16184,2023.000
1.212822437286377,1,1,11207,1400.875
1.2206370830535889,0,0,14507,1813.375
1.2284495830535889,0,0,15086,1885.750
1.2362618446350098,0,0,8760,1095.000
1.2440717220306396,0,0,16026,2003.250
1.2518928050994873,0,0,12237,1529.625
1.2597019672393799,0,0,13762,1720.250
1.267514705657959,0,0,15966,1995.750
1.275360345840454,1,1,8372,1046.500
1.2831342220306396,0,0,15882,1985.250
1.2909457683563232,0,0,13532,1691.500
1.298762321472168,0,0,12446,1555.750
1.3065786361694336,0,0,15912,1989.000
1.314382791519165,1,1,7957,994.625
1.322197675704956,0,0,15534,1941.750
1.3300096988677979,0,0,14341,1792.625
1.3378486633300781,0,0,11052,1381.500
1.3456404209136963,0,0,16158,2019.750
1.3534526824951172,1,1,9655,1206.875
1.3612632751464844,0,0,15245,1905.625
1.3693435192108154,0,0,15356,1919.500
1.3770806789398193,0,0,9164,1145.500
1.3847074508666992,0,0,16012,2001.500
1.3925156593322754,0,0,9804,1225.500
1.400322437286377,0,0,14547,1818.375
1.4081380367279053,0,0,15736,1967.000
1.4159493446350098,0,0,8075,1009.375
1.4237611293792725,0,0,15885,1985.625
1.431652545928955,0,0,12011,1501.375
1.439391851425171,0,0,12777,1597.125
1.4471962451934814,0,0,16068,2008.500
1.4550063610076904,1,1,8340,1042.500
1.4628264904022217,0,0,15593,1949.125
1.470637321472168,0,0,12642,1580.250
1.4784553050994873,0,0,11101,1387.625
1.486262559890747,0,0,16152,2019.000
1.494055986404419,1,1,9448,1181.000
1.50189208984375,0,0,15269,1908.625
1.5097062587738037,0,0,14108,1763.500
1.5175163745880127,0,0,9271,1158.875
1.525369644165039,0,0,16051,2006.375
1.5331358909606934,1,1,10242,1280.250
1.5409505367279053,0,0,14717,1839.625
1.5487699508666992,0,0,15057,1882.125
1.5565719604492188,0,0,8248,1031.000
1.5643949508666992,0,0,15900,1987.500
1.5721967220306396,0,0,11645,1455.625
1.5800507068634033,0,0,13993,1749.125
1.5878238677978516,0,0,15216,1902.000
1.5956425666809082,1,1,7797,974.625
1.6034481525421143,0,0,15573,1946.625
1.6112635135650635,0,0,12480,1560.000
1.6190755367279053,0,0,12909,1613.625
1.626889944076538,0,0,15688,1961.000
1.6346983909606934,1,1,8533,1066.625
1.6425156593322754,0,0,15256,1907.000
1.6503231525421143,0,0,14221,1777.625
1.6581392288208008,0,0,11809,1476.125
1.66595458984375,0,0,16018,2002.250
1.6737582683563232,1,1,9559,1194.875
1.6815669536590576,0,0,14724,1840.500
1.6893882751464844,0,0,15060,1882.500
1.697202205657959,0,0,10148,1268.500
1.7050104141235352,0,0,16138,2017.250
1.7128281593322754,0,0,11512,1439.000
1.7206389904022217,0,0,14158,1769.750
1.728445291519165,0,0,15605,1950.625
1.7362680435180664,0,0,8372,1046.500
1.7440721988677979,0,0,15973,1996.625
1.75189208984375,0,0,12678,1584.750
1.7597031593322754,0,0,13067,1633.375
1.7675118446350098,0,0,15848,1981.000
1.7753632068634033,1,1,7848,981.000
1.7831287384033203,0,0,15732,1966.500
1.790950059890747,0,0,14018,1752.250
1.7987701892852783,0,0,11919,1489.875
1.8065743446350098,0,0,16020,2002.500
1.8143835067749023,1,1,8285,1035.625
1.8222153186798096,0,0,15288,1911.000
1.8300938606262207,0,0,13878,1734.750
1.8378257751464844,0,0,9338,1167.250
1.84564208984375,0,0,16041,2005.125
1.8534493446350098,1,1,9145,1143.125
1.861259937286377,0,0,14793,1849.125
1.86907958984375,0,0,14732,1841.500
1.8768858909606934,0,0,7535,941.875
1.8846986293792725,0,0,15952,1994.000
1.892496109008789,0,0,10519,1314.875
1.900327205657959,0,0,14279,1784.875
1.9081449508666992,0,0,15990,1998.750
1.915952444076538,1,1,8093,1011.625
1.923764705657959,0,0,15836,1979.500
1.9315593242645264,0,0,12354,1544.250
1.9393925666809082,0,0,13472,1684.000
1.9472029209136963,0,0,16101,2012.625
1.9577338695526123,0,0,8805,1100.625
1.9628186225891113,0,0,15523,1940.375
1.970625877380371,0,0,14054,1756.750
1.9784326553344727,0,0,12546,1568.250
1.986257791519165,0,0,16184,2023.000
1.9940741062164307,1,1,9491,1186.375
2.0018410682678223,0,0,15007,1875.875
2.0096704959869385,0,0,14319,1789.875
2.0174758434295654,0,0,8394,1049.250
2.0253143310546875,0,0,16043,2005.375
2.0330941677093506,0,0,10749,1343.625
2.040907621383667,0,0,14385,1798.125
2.0487165451049805,0,0,15172,1896.500
2.0565345287323,0,0,7921,990.125
2.0643444061279297,0,0,15795,1974.375
2.072157382965088,0,0,11197,1399.625
2.0799710750579834,0,0,13370,1671.250
2.087782621383667,0,0,15834,1979.250
2.0955989360809326,1,1,8713,1089.125
2.103454351425171,0,0,15597,1949.625
2.1112687587738037,0,0,13708,1713.500
2.1190903186798096,0,0,12560,1570.000
2.1268866062164307,0,0,16109,2013.625
2.1346962451934814,1,1,9581,1197.625
2.1425249576568604,0,0,15099,1887.375
2.1503264904022217,0,0,14091,1761.375
2.1581406593322754,0,0,10654,1331.750
2.165966749191284,0,0,16165,2020.625
2.1737582683563232,1,1,10523,1315.375
2.181565999984741,0,0,14450,1806.250
2.1893911361694336,0,0,14850,1856.250
2.19720196723938,0,0,8413,1051.625
2.205007314682007,0,0,16046,2005.750
2.212825059890747,0,0,11269,1408.625
2.2206342220306396,0,0,13439,1679.875
2.2284553050994873,0,0,15613,1951.625
2.236260175704956,1,1,7722,965.250
2.2440736293792725,0,0,15928,1991.000
2.2518889904022217,0,0,13353,1669.125
2.2597014904022217,0,0,12703,1587.875
2.267514944076538,0,0,16181,2022.625
2.2753679752349854,1,1,8485,1060.625
2.2831432819366455,0,0,15690,1961.250
2.290950059890747,0,0,14422,1802.750
2.2987682819366455,0,0,11027,1378.375
2.3065781593322754,0,0,16196,2024.500
2.314387559890747,1,1,9147,1143.375
2.3222005367279053,0,0,15252,1906.500
2.330012798309326,0,0,15217,1902.125
2.337829351425171,0,0,9177,1147.125
2.3456504344940186,0,0,16136,2017.000
2.3534562587738037,0,0,10730,1341.250
2.3612639904022217,0,0,14715,1839.375
2.3693482875823975,0,0,14414,1801.750
2.377089500427246,0,0,7523,940.375
2.3847153186798096,0,0,15920,1990.000
2.3925139904022217,0,0,12011,1501.375
2.4003283977508545,0,0,14118,1764.750
2.4081380367279053,0,0,16174,2021.750
2.415952444076538,1,1,8477,1059.625
2.4237422943115234,0,0,15687,1960.875
2.4316086769104004,0,0,12565,1570.625
2.4393985271453857,0,0,12814,1601.750
2.447204828262329,0,0,16180,2022.500
2.455009698867798,1,1,9136,1142.000
2.462825298309326,0,0,15252,1906.500
2.4706451892852783,0,0,13463,1682.875
2.4784514904022217,0,0,11315,1414.375
2.486264705657959,0,0,16121,2015.125
2.494072675704956,1,1,10541,1317.625
2.501892566680908,0,0,14845,1855.625
2.5097055435180664,0,0,14763,1845.375
2.5175299644470215,0,0,9408,1176.000
2.5253710746765137,0,0,15932,1991.500
2.5331342220306396,0,0,10984,1373.000
2.540952444076538,0,0,13971,1746.375
2.548766851425171,0,0,15571,1946.375
2.5565803050994873,1,1,8150,1018.750
2.5643866062164307,0,0,15730,1966.250
2.5722036361694336,0,0,12978,1622.250
2.580014944076538,0,0,13133,1641.625
2.5878307819366455,0,0,15773,1971.625
2.59563946723938,1,1,7590,948.750
2.6034553050994873,0,0,15276,1909.500
2.611259698867798,0,0,13873,1734.125
2.619081974029541,0,0,11809,1476.125
2.6268906593322754,0,0,16264,2033.000
2.634697675704956,1,1,9286,1160.750
2.642515182495117,0,0,14940,1867.500
2.6503233909606934,0,0,15105,1888.125
2.658141613006592,0,0,10076,1259.500
2.665949821472168,0,0,16176,2022.000
2.6737630367279053,0,0,11349,1418.625
2.6815736293792725,0,0,14158,1769.750
2.689389705657959,0,0,15511,1938.875
2.697201728820801,0,0,8260,1032.500
2.7050116062164307,0,0,16014,2001.750
2.712829351425171,0,0,12440,1555.000
2.7206361293792725,0,0,13203,1650.375
2.7284514904022217,0,0,16161,2020.125
2.736268997192383,1,1,8529,1066.125
2.744077444076538,0,0,15823,1977.875
2.751887559890747,0,0,13714,1714.250
2.7597053050994873,0,0,11777,1472.125
2.7675089836120605,0,0,16036,2004.500
2.775376319885254,1,1,8259,1032.375
2.7831385135650635,0,0,15383,1922.875
2.7909557819366455,0,0,14539,1817.375
2.798781633377075,0,0,9956,1244.500
2.806577444076538,0,0,16174,2021.750
2.8143982887268066,1,1,10104,1263.000
2.822195291519165,0,0,15023,1877.875
2.8300178050994873,0,0,15333,1916.625
2.83782958984375,0,0,8161,1020.125
2.8456406593322754,0,0,16018,2002.250
2.853449821472168,0,0,11099,1387.375
2.861276149749756,0,0,14382,1797.750
2.8690805435180664,0,0,15949,1993.625
2.8768882751464844,1,0,8012,1001.500
2.884701728820801,0,0,15805,1975.625
2.892510414123535,0,0,12287,1535.875
2.90032958984375,0,0,13576,1697.000
2.9081339836120605,0,0,16222,2027.750
2.915958881378174,1,1,8946,1118.250
2.923762083053589,0,0,15542,1942.750
2.931565523147583,0,0,13880,1735.000
2.939391851425171,0,0,12433,1554.125
2.9472110271453857,0,0,16175,2021.875
2.955012083053589,1,1,9749,1218.625
2.9628286361694336,0,0,14933,1866.625
2.9706411361694336,0,0,13338,1667.250
2.97845196723938,0,0,10050,1256.250
2.9862654209136963,0,0,15997,1999.625
2.9940736293792725,0,1,10948,1368.500
3.0018908977508545,0,0,14432,1804.000
3.009706735610962,0,0,14840,1855.000
3.0175013542175293,0,0,8271,1033.875
3.0253498554229736,0,0,15800,1975.000
3.033140182495117,0,0,11853,1481.625
3.040950298309326,0,0,13513,1689.125
3.0487685203552246,0,0,15687,1960.875
3.0565738677978516,1,1,7718,964.750
3.064389228820801,0,0,15529,1941.125
3.072202444076538,0,0,13332,1666.500
3.0800113677978516,0,0,12500,1562.500
3.087827682495117,0,0,16193,2024.125
3.0956368446350098,1,1,8585,1073.125
3.103452205657959,0,0,15162,1895.250
3.111264228820801,0,0,14435,1804.375
3.119077444076538,0,0,10901,1362.625
3.1268913745880127,0,0,16232,2029.000
3.1346986293792725,1,1,9676,1209.500
3.1425139904022217,0,0,14581,1822.625
3.150330066680908,0,0,15269,1908.625
3.1581549644470215,0,0,8956,1119.500
3.1659536361694336,0,0,16101,2012.625
3.173762083053589,0,0,10416,1302.000
3.181565761566162,0,0,13650,1706.250
3.189387798309326,0,0,15809,1976.125
3.1971993446350098,1,0,8013,1001.625
3.2050204277038574,0,0,15894,1986.750
3.2128238677978516,0,0,11067,1383.375
3.2206385135650635,0,0,12414,1551.750
3.228450059890747,0,0,16274,2034.250
3.2362632751464844,1,1,9063,1132.875
3.2440738677978516,0,0,15715,1964.375
3.251885414123535,0,0,14151,1768.875
3.25970458984375,0,0,10985,1373.125
3.267512083053589,0,0,16178,2022.250
3.275359630584717,1,1,9129,1141.125
3.2831337451934814,0,0,15219,1902.375
3.290947675704956,0,0,15071,1883.875
3.298779010772705,0,0,8849,1106.125
3.3065760135650635,0,0,16093,2011.625
3.314382553100586,0,1,10252,1281.500
3.322197914123535,0,0,14720,1840.000
3.330014228820801,0,0,15920,1990.000
3.337822675704956,0,0,8312,1039.000
3.345637083053589,0,0,15965,1995.625
3.353447437286377,0,0,11698,1462.250
3.3612613677978516,0,0,14021,1752.625
3.369344711303711,0,0,15761,1970.125
3.3770885467529297,1,1,8547,1068.375
3.3847193717956543,0,0,15675,1959.375
3.392521619796753,0,0,12440,1555.000
3.4003236293792725,0,0,12790,1598.750
3.4081413745880127,0,0,16178,2022.250
3.41595196723938,1,1,9166,1145.750
3.4237587451934814,0,0,15298,1912.250
3.431561231613159,0,0,14256,1782.000
3.4393975734710693,0,0,11623,1452.875
3.4472076892852783,0,0,16128,2016.000
3.455009937286377,1,1,10278,1284.750
3.462822914123535,0,0,14788,1848.500
3.470637321472168,0,0,15332,1916.500
3.478454351425171,0,0,9945,1243.125
3.486269950866699,0,0,15974,1996.750
3.494075298309326,0,0,11535,1441.875
3.5019004344940186,0,0,13963,1745.375
3.509706497192383,0,0,15523,1940.375
3.5175211429595947,1,1,8121,1015.125
3.5253822803497314,0,0,15700,1962.500
3.5331223011016846,0,0,13089,1636.125
3.5409560203552246,0,0,13073,1634.125
3.5487754344940186,0,0,15800,1975.000
3.5565757751464844,1,1,7658,957.250
3.564391851425171,0,0,15248,1906.000
3.572200298309326,0,0,13771,1721.375
3.58001708984375,0,0,11565,1445.625
3.587827444076538,0,0,16100,2012.500
3.595644474029541,1,1,8518,1064.750
3.603452682495117,0,0,14743,1842.875
3.61126708984375,0,0,14727,1840.875
3.619077682495117,0,0,9764,1220.500
3.626889944076538,0,0,16160,2020.000
3.6346983909606934,1,1,10074,1259.250
3.642512798309326,0,0,14147,1768.375
3.650330066680908,0,0,15516,1939.500
3.65813946723938,0,0,8193,1024.125
3.6659586429595947,0,0,16008,2001.000
3.6737594604492188,0,0,11222,1402.750
3.6815743446350098,0,0,12866,1608.250
3.68938946723938,0,0,15118,1889.750
3.697199821472168,1,1,6832,854.000
3.70501446723938,0,0,15693,1961.625
3.712825298309326,0,0,12167,1520.875
3.720639228820801,0,0,11754,1469.250
3.7284507751464844,0,0,16266,2033.250
3.7362682819366455,1,1,9183,1147.875
3.744074583053589,0,0,15508,1938.500
3.7518908977508545,0,0,13203,1650.375
3.759700298309326,0,0,9768,1221.000
3.76751971244812,0,0,16174,2021.750
3.7753708362579346,1,1,9723,1215.375
3.7831363677978516,0,0,15037,1879.625
3.7909469604492188,0,0,14895,1861.875
3.7987606525421143,0,0,8627,1078.375
3.806579828262329,0,0,16075,2009.375
3.8143842220306396,0,0,10966,1370.750
3.822205066680908,0,0,14359,1794.875
3.8300156593322754,0,0,15385,1923.125
3.8378312587738037,1,1,8111,1013.875
3.84563946723938,0,0,15807,1975.875
3.8534507751464844,0,0,11612,1451.500
3.8612568378448486,0,0,13373,1671.625
3.869081974029541,0,0,16253,2031.625
3.8768935203552246,1,1,9112,1139.000
3.884700298309326,0,0,15574,1946.750
3.8925156593322754,0,0,13746,1718.250
3.9003257751464844,0,0,12452,1556.500
3.9105145931243896,0,0,15906,1988.250
3.9159655570983887,1,1,10098,1262.250
3.923771858215332,0,0,15103,1887.875
3.9315667152404785,0,0,14478,1809.750
3.93939208984375,0,0,10539,1317.375
3.9472014904022217,0,0,16039,2004.875
3.9550108909606934,1,1,10767,1345.875
3.9628214836120605,0,0,14447,1805.875
3.9706358909606934,0,0,15555,1944.375
3.978588104248047,0,0,9056,1132.000
3.9862682819366455,0,0,15882,1985.250
3.994074821472168,0,0,12726,1590.750
4.0018486976623535,0,0,13646,1705.750
4.0096681118011475,0,0,15636,1954.500
4.017470836639404,1,1,7635,954.375
4.025327444076538,0,0,15483,1935.375
4.0330939292907715,0,0,13424,1678.000
4.0409095287323,0,0,12517,1564.625
4.0487213134765625,0,0,16156,2019.500
4.056535959243774,1,1,8531,1066.375
4.064346790313721,0,0,15114,1889.250
4.072155475616455,0,0,14510,1813.750
4.079974412918091,0,0,10781,1347.625
4.087782382965088,0,0,16168,2021.000
4.095599174499512,1,1,9296,1162.000
4.103456020355225,0,0,14481,1810.125
4.111265182495117,0,0,15408,1926.000
4.119076251983643,0,0,8867,1108.375
4.126892328262329,0,0,16058,2007.250
4.134699821472168,0,0,10158,1269.750
4.142512083053589,0,0,13619,1702.375
4.150327682495117,0,0,16003,2000.375
4.1581337451934814,1,1,8334,1041.750
4.16595721244812,0,0,15915,1989.375
4.173758268356323,0,0,11901,1487.625
4.181573152542114,0,0,12444,1555.500
4.189386606216431,0,0,15926,1990.750
4.197204828262329,1,1,7882,985.250
4.205014228820801,0,0,15576,1947.000
4.212829351425171,0,0,13266,1658.250
4.220638275146484,0,0,11100,1387.500
4.228453636169434,0,0,16207,2025.875
4.236263275146484,1,1,9439,1179.875
4.244072198867798,0,0,15211,1901.375
4.251891851425171,0,0,14011,1751.375
4.259705066680908,0,0,8800,1100.000
4.267521142959595,0,0,16047,2005.875
4.275371551513672,1,1,9678,1209.750
4.283141851425171,0,0,14525,1815.625
4.290952920913696,0,0,14805,1850.625
4.298786401748657,0,0,7830,978.750
4.306585073471069,0,0,15936,1992.000
4.314384460449219,0,0,12220,1527.500
4.322205543518066,0,0,14074,1759.250
4.330013275146484,0,0,15714,1964.250
4.337815523147583,1,1,8445,1055.625
4.345630168914795,0,0,15678,1959.750
4.353444576263428,0,0,13233,1654.125
4.3612565994262695,0,0,13036,1629.500
4.3693389892578125,0,0,16102,2012.750
4.377075672149658,1,1,9460,1182.500
4.384711027145386,0,0,15327,1915.875
4.392510414123535,0,0,14465,1808.125
4.400323152542114,0,0,11716,1464.500
4.408138275146484,0,0,16114,2014.250
4.415947198867798,1,1,10264,1283.000
4.423760652542114,0,0,14680,1835.000
4.4315996170043945,0,0,14902,1862.750
4.439571857452393,0,0,9766,1220.750
4.447415351867676,0,0,16160,2020.000
4.4550416469573975,0,0,12741,1592.625
4.462837219238281,0,0,14208,1776.000
4.470637321472168,0,0,15193,1899.125
4.478454113006592,1,0,7607,950.875
4.486266851425171,0,0,15594,1949.250
4.494071960449219,0,0,12841,1605.125
4.501880407333374,0,0,12982,1622.750
4.509716033935547,0,0,15968,1996.000
4.517520427703857,1,1,8016,1002.000
4.525372505187988,0,0,15278,1909.750
4.533151388168335,0,0,13843,1730.375
4.540954828262329,0,0,11597,1449.625
4.548750638961792,0,0,16176,2022.000
4.556584596633911,1,1,9010,1126.250
4.564387321472168,0,0,14799,1849.875
4.572211027145386,0,0,15051,1881.375
4.58002233505249,0,0,9867,1233.375
4.587826251983643,0,0,16115,2014.375
4.59564208984375,1,1,9695,1211.875
4.603450775146484,0,0,14013,1751.625
4.6112706661224365,0,0,15599,1949.875
4.619077920913696,0,0,8303,1037.875
4.626893520355225,0,0,15996,1999.500
4.63469934463501,0,0,11510,1438.750
4.642516851425171,0,0,13189,1648.625
4.650329351425171,0,0,16073,2009.125
4.658130407333374,1,1,8283,1035.375
4.665989637374878,0,0,15743,1967.875
4.67376184463501,0,0,12308,1538.500
4.681570291519165,0,0,11531,1441.375
4.689393997192383,0,0,16112,2014.000
4.697207689285278,1,1,8666,1083.250
4.705013275146484,0,0,15404,1925.500
4.712824821472168,0,0,13809,1726.125
4.72063946723938,0,0,10056,1257.000
4.728455543518066,0,0,16144,2018.000
4.736266613006592,1,1,9938,1242.250
4.744078636169434,0,0,14945,1868.125
4.751888990402222,0,0,14827,1853.375
4.759701251983643,0,0,8443,1055.375
4.767517805099487,0,0,15977,1997.125
4.775367498397827,0,0,10508,1313.500
4.78313946723938,0,0,14137,1767.125
4.7909462451934814,0,0,15104,1888.000
4.79878830909729,1,0,7773,971.625
4.80658221244812,0,0,15777,1972.125
4.81438946723938,0,0,12737,1592.125
4.822198390960693,0,0,13521,1690.125
4.8300135135650635,0,0,15843,1980.375
4.8378236293792725,1,1,8731,1091.375
4.845640420913696,0,0,15441,1930.125
4.853458404541016,0,0,13473,1684.125
4.861260414123535,0,0,12126,1515.750
4.869081497192383,0,0,16115,2014.375
4.8768885135650635,1,1,9766,1220.750
4.88469934463501,0,0,14994,1874.250
4.892515182495117,0,0,14690,1836.250
4.900325059890747,0,0,10585,1323.125
4.9081408977508545,0,0,16171,2021.375
4.915958881378174,1,1,11018,1377.250
4.923760414123535,0,0,14351,1793.875
4.9315667152404785,0,0,15045,1880.625
4.93939471244812,0,0,8377,1047.125
4.947191953659058,0,0,15783,1972.875
4.954993009567261,0,0,12405,1550.625
4.962822198867798,0,0,13568,1696.000
4.970643758773804,0,0,15881,1985.125
4.978451251983643,1,1,8020,1002.500
4.986269950866699,0,0,15510,1938.750
4.994070529937744,0,0,13483,1685.375
5.001888751983643,0,0,12303,1537.875
5.00970721244812,0,0,16063,2007.875
5.017519474029541,1,1,8276,1034.500
5.025367498397827,0,0,15010,1876.250
5.033138275146484,0,0,14276,1784.500
5.040952682495117,0,0,10722,1340.250
5.048765659332275,0,0,16195,2024.375
5.0565712451934814,1,1,9848,1231.000
5.064367771148682,0,0,14506,1813.250
5.0722057819366455,0,0,15278,1909.750
5.080016851425171,0,0,8809,1101.125
5.087833881378174,0,0,16062,2007.750
5.095637559890747,0,0,10687,1335.875
5.103456497192383,0,0,13625,1703.125
5.111262321472168,0,0,15889,1986.125
5.119074821472168,1,1,8087,1010.875
5.126892805099487,0,0,15843,1980.375
5.134700298309326,0,0,11225,1403.125
5.142514705657959,0,0,12216,1527.000
5.150324821472168,0,0,16158,2019.750
5.158137321472168,1,1,8655,1081.875
5.165956497192383,0,0,15639,1954.875
5.173761367797852,0,0,13747,1718.375
5.181572437286377,0,0,11204,1400.500
5.18938946723938,0,0,16177,2022.125
5.197206020355225,1,1,9271,1158.875
5.2050087451934814,0,0,15119,1889.875
5.2128331661224365,0,0,13653,1706.625
5.220637798309326,0,0,8527,1065.875
5.228455543518066,0,0,16047,2005.875
5.236260652542114,1,1,10620,1327.500
5.2440783977508545,0,0,14615,1826.875
5.251890182495117,0,0,14666,1833.250
5.259708642959595,0,0,7670,958.750
5.267514705657959,0,0,15901,1987.625
5.275370359420776,0,0,12668,1583.500
5.283140659332275,0,0,14053,1756.625
5.290955066680908,0,0,15238,1904.750
5.298781633377075,1,1,7759,969.875
5.306580305099487,0,0,15517,1939.625
5.314387798309326,0,0,12470,1558.750
5.322198867797852,0,0,12589,1573.625
5.330016374588013,0,0,16052,2006.500
5.337827920913696,1,1,9387,1173.375
5.345642328262329,0,0,15219,1902.375
5.353448152542114,0,0,13446,1680.750
5.361262321472168,0,0,11101,1387.625
5.369352340698242,0,0,16215,2026.875
5.377089262008667,1,1,10835,1354.375
5.384703636169434,0,0,14812,1851.500
5.39255428314209,0,0,15292,1911.500
5.400381326675415,0,0,9919,1239.875
5.408159017562866,0,0,16175,2021.875
5.415958404541016,0,0,12531,1566.375
5.423757553100586,0,0,14129,1766.125
5.431577444076538,0,0,15565,1945.625
5.439393043518066,1,1,8000,1000.000
5.447206020355225,0,0,15646,1955.750
5.455005407333374,0,0,13279,1659.875
5.462827205657959,0,0,12900,1612.500
5.470642328262329,0,0,15700,1962.500
5.47845196723938,1,1,7485,935.625
5.486271381378174,0,0,15163,1895.375
5.494073390960693,0,0,13973,1746.625
5.501892566680908,0,0,11548,1443.500
5.5097081661224365,0,0,16183,2022.875
5.517512798309326,1,1,9038,1129.750
5.525381088256836,0,0,14771,1846.375
5.533139944076538,0,0,14935,1866.875
5.540951490402222,0,0,9648,1206.000
5.548765659332275,0,0,16127,2015.875
5.556581020355225,1,1,10251,1281.375
5.564388990402222,0,0,14047,1755.875
5.572195053100586,0,0,15450,1931.250
5.5800182819366455,0,0,7983,997.875
5.58784031867981,0,0,15941,1992.625
5.595636606216431,0,0,10870,1358.750
5.603452920913696,0,0,12808,1601.000
5.611280918121338,0,0,15874,1984.250
5.619081497192383,1,1,7822,977.750
5.626891136169434,0,0,15726,1965.750
5.634699583053589,0,0,12900,1612.500
5.642514228820801,0,0,11864,1483.000
5.650329351425171,0,0,16224,2028.000
5.658142328262329,1,1,9158,1144.750
5.66595458984375,0,0,15429,1928.625
5.673761606216431,0,0,13898,1737.250
5.681572914123535,0,0,10059,1257.375
5.68938946723938,0,0,16163,2020.375
5.697203874588013,1,1,10539,1317.375
5.705012559890747,0,0,14893,1861.625
5.712822914123535,0,0,14051,1756.375
5.720638751983643,0,0,7668,958.500
5.728456258773804,0,0,15935,1991.875
5.736268043518066,0,0,11131,1391.375
5.744075298309326,0,0,14243,1780.375
5.751885890960693,0,0,15304,1913.000
5.759704113006592,1,1,7967,995.875
5.76751708984375,0,0,15724,1965.500
5.775373697280884,0,0,11808,1476.000
5.783137559890747,0,0,13195,1649.375
5.790951490402222,0,0,15945,1993.125
5.798764228820801,1,1,8982,1122.750
5.806584358215332,0,0,15462,1932.750
5.814386367797852,0,0,13647,1705.875
5.822197914123535,0,0,12080,1510.000
5.83001184463501,0,0,16091,2011.375
5.837827920913696,1,1,9640,1205.000
5.845644950866699,0,0,14944,1868.000
5.853451251983643,0,0,14510,1813.750
5.863563776016235,0,0,13802,1725.250
5.869088888168335,0,0,16196,2024.500
5.876896142959595,0,1,11517,1439.625
5.884697198867798,0,0,14478,1809.750
5.892522573471069,0,0,15734,1966.750
5.900315523147583,1,0,8939,1117.375
5.908102512359619,0,0,15811,1976.375
5.915912389755249,0,0,12107,1513.375
5.923721075057983,0,0,13427,1678.375
5.93152928352356,0,0,15975,1996.875
5.939335107803345,1,1,8153,1019.125
5.9471681118011475,0,0,15467,1933.375
5.954968690872192,0,0,13463,1682.875
5.962785243988037,0,0,12270,1533.750
5.970595836639404,0,0,16176,2022.000
5.978411912918091,1,1,8775,1096.875
5.986226558685303,0,0,15066,1883.250
5.994033575057983,0,0,14752,1844.000
6.001893758773804,0,0,10770,1346.250
6.00971531867981,0,0,16175,2021.875
6.017519474029541,1,1,9867,1233.375
6.025368928909302,0,0,14445,1805.625
6.033138275146484,0,0,15447,1930.875
6.040950775146484,0,0,8723,1090.375
6.048769474029541,0,0,16013,2001.625
6.0565783977508545,0,0,10458,1307.250
6.06438946723938,0,0,13466,1683.250
6.072198390960693,0,0,15997,1999.625
6.080004930496216,1,1,8333,1041.625
6.087831497192383,0,0,15862,1982.750
6.095637083053589,0,0,12048,1506.000
6.103455066680908,0,0,12229,1528.625
6.111262798309326,0,0,15996,1999.500
6.1190807819366455,1,1,8145,1018.125
6.126891851425171,0,0,15496,1937.000
6.134699821472168,0,0,13002,1625.250
6.142511367797852,0,0,10644,1330.500
6.15032434463501,0,0,16169,2021.125
6.158138751983643,1,1,9840,1230.000
6.165956735610962,0,0,15179,1897.375
6.173763990402222,0,0,14253,1781.625
6.1815714836120605,0,0,8923,1115.375
6.189388751983643,0,0,16059,2007.375
6.1972010135650635,0,1,10998,1374.750
6.205013990402222,0,0,14616,1827.000
6.213533639907837,0,0,14737,1842.125
6.220686674118042,0,0,7611,951.375
6.2284393310546875,0,0,15820,1977.500
6.236250162124634,0,0,12092,1511.500
6.244056701660156,0,0,13734,1716.750
6.251910209655762,0,0,15346,1918.250
6.259706020355225,1,1,7928,991.000
6.267514944076538,0,0,15532,1941.500
6.275379419326782,0,0,13326,1665.750
6.28313684463501,0,0,12860,1607.500
6.290956497192383,0,0,16124,2015.500
6.298778772354126,1,1,9665,1208.125
6.306580066680908,0,0,15236,1904.500
6.314383506774902,0,0,14328,1791.000
6.322203636169434,0,0,11122,1390.250
6.330016851425171,0,0,16029,2003.625
6.3378307819366455,1,1,9755,1219.375
6.345639705657959,0,0,14461,1807.625
6.353448152542114,0,0,14888,1861.000
6.361266374588013,0,0,9054,1131.750
6.369340181350708,0,0,16069,2008.625
6.377087593078613,0,0,11418,1427.250
6.384718179702759,0,0,13728,1716.000
6.392518043518066,0,0,15348,1918.500
6.400322437286377,1,1,7589,948.625
6.408146142959595,0,0,15892,1986.500
6.415950536727905,0,0,12649,1581.125
6.423758029937744,0,0,12770,1596.250
6.431579113006592,0,0,16115,2014.375
6.439397096633911,1,1,8372,1046.500
6.447211503982544,0,0,15705,1963.125
6.4550087451934814,0,0,13752,1719.000
6.462828874588013,0,0,11218,1402.250
6.470632791519165,0,0,16173,2021.625
6.478456735610962,1,1,9029,1128.625
6.486268043518066,0,0,14677,1834.625
6.494075298309326,0,0,14640,1830.000
6.501886367797852,0,0,9179,1147.375
6.509702682495117,0,0,16126,2015.750
6.517515659332275,0,0,10488,1311.000
6.52538800239563,0,0,14041,1755.125
6.533141136169434,0,0,15636,1954.500
6.540950059890747,0,0,8082,1010.250
6.548762559890747,0,0,15968,1996.000
6.556580066680908,0,0,11464,1433.000
6.564389228820801,0,0,12766,1595.750
6.572204113006592,0,0,15800,1975.000
6.579995393753052,1,1,7649,956.125
6.587839365005493,0,0,15674,1959.250
6.59562873840332,0,0,12410,1551.250
6.60345196723938,0,0,11475,1434.375
6.611268520355225,0,0,16231,2028.875
6.619080066680908,1,1,9301,1162.625
6.626889944076538,0,0,15397,1924.625
6.6347033977508545,0,0,13612,1701.500
6.642516136169434,0,0,9563,1195.375
6.650336027145386,0,0,16151,2018.875
6.658138990402222,1,1,10432,1304.000
6.6659581661224365,0,0,14887,1860.875
6.673758506774902,0,0,14170,1771.250
6.681567192077637,0,0,7616,952.000
6.689390659332275,0,0,15934,1991.750
6.697207450866699,0,0,10946,1368.250
6.705014944076538,0,0,14159,1769.875
6.712827444076538,0,0,15528,1941.000
6.7206408977508545,1,0,8202,1025.250
6.7284533977508545,0,0,15748,1968.500
6.736268997192383,0,0,12180,1522.500
6.744074821472168,0,0,13145,1643.125
6.751885890960693,0,0,15854,1981.750
6.759703159332275,1,1,8767,1095.875
6.767522573471069,0,0,15338,1917.250
6.775367498397827,0,0,12812,1601.500
6.78313946723938,0,0,11367,1420.875
6.790950536727905,0,0,15823,1977.875
6.798763275146484,1,1,8923,1115.375
6.806580543518066,0,0,14801,1850.125
6.814383506774902,0,0,14443,1805.375
6.822202444076538,0,0,10193,1274.125
6.8300087451934814,0,0,16249,2031.125
6.837831020355225,0,0,11729,1466.125
6.845638275146484,0,0,14372,1796.500
6.853456735610962,0,0,15204,1900.500
6.861258029937744,1,1,8180,1022.500
6.869076251983643,0,0,16062,2007.750
6.876893520355225,0,0,12200,1525.000
6.884694337844849,0,0,13331,1666.375
6.8925111293792725,0,0,15933,1991.625
6.9003214836120605,1,1,7946,993.250
6.908137798309326,0,0,15866,1983.250
6.91594934463501,0,0,13750,1718.750
6.923767805099487,0,0,12194,1524.250
6.931564569473267,0,0,16187,2023.375
6.939393997192383,1,1,8587,1073.375
6.947200536727905,0,0,15007,1875.875
6.955013036727905,0,0,14531,1816.375
6.962827682495117,0,0,10148,1268.500
6.970636606216431,0,0,16178,2022.250
6.97844386100769,1,1,9407,1175.875
6.98625636100769,0,0,14268,1783.500
6.994058847427368,0,0,15195,1899.375
7.001888036727905,0,0,8436,1054.500
7.00970983505249,0,0,16104,2013.000
7.0175182819366455,0,0,11353,1419.125
7.0253705978393555,0,0,13526,1690.750
7.033138751983643,0,0,15738,1967.250
7.040953636169434,1,1,7685,960.625
7.048766374588013,0,0,15865,1983.125
7.056581497192383,0,0,12228,1528.500
7.064387321472168,0,0,12232,1529.000
7.072198152542114,0,0,16105,2013.125
7.080018043518066,1,1,8301,1037.625
7.0878307819366455,0,0,15541,1942.625
7.095641136169434,0,0,12957,1619.625
7.103434801101685,0,0,10445,1305.625
7.111265420913696,0,0,16235,2029.375
7.119079113006592,1,1,9928,1241.000
7.126896858215332,0,0,15175,1896.875
7.134695529937744,0,0,13931,1741.375
7.142516613006592,0,0,8322,1040.250
7.150327682495117,0,0,16071,2008.875
7.158139944076538,0,0,10454,1306.750
7.165957689285278,0,0,14524,1815.500
7.17375922203064,0,0,15212,1901.500
7.1815690994262695,0,0,8041,1005.125
7.189388036727905,0,0,15911,1988.875
7.197205305099487,0,0,12008,1501.000
7.205013751983643,0,0,13712,1714.000
7.212827682495117,0,0,15438,1929.750
7.220637321472168,1,1,8002,1000.250
7.228449106216431,0,0,15599,1949.875
7.2362682819366455,0,0,13974,1746.750
7.2440712451934814,0,0,13043,1630.375
7.251891613006592,0,0,16254,2031.750
7.259702444076538,1,1,9967,1245.875
7.267518520355225,0,0,15272,1909.000
7.2753612995147705,0,0,14554,1819.250
7.2831385135650635,0,0,11287,1410.875
7.29095196723938,0,0,16227,2028.375
7.29876971244812,1,1,10774,1346.750
7.306581497192383,0,0,14588,1823.500
7.314385890960693,0,0,14638,1829.750
7.322205543518066,0,0,8688,1086.000
7.330017566680908,0,0,16101,2012.625
7.3378307819366455,0,0,12183,1522.875
7.34563946723938,0,0,13928,1741.000
7.353450775146484,0,0,15942,1992.750
7.361259937286377,1,1,8329,1041.125
7.36935019493103,0,0,15947,1993.375
7.377105236053467,0,0,12779,1597.375
7.384711265563965,0,0,12703,1587.875
7.392510890960693,0,0,16238,2029.750
7.400325536727905,1,1,8855,1106.875
7.408140182495117,0,0,15320,1915.000
7.415952682495117,0,0,14338,1792.250
7.423767566680908,0,0,11282,1410.250
7.431557655334473,0,0,16125,2015.625
7.439399719238281,1,1,8741,1092.625
7.447206735610962,0,0,14564,1820.500
7.455015659332275,0,0,15074,1884.250
7.462823152542114,0,0,9215,1151.875
7.470639705657959,0,0,16086,2010.750
7.478450298309326,0,0,9704,1213.000
7.486272573471069,0,0,13666,1708.250
7.494074821472168,0,0,15460,1932.500
7.501889944076538,0,0,7759,969.875
7.509697675704956,0,0,15943,1992.875
7.517520427703857,0,0,11502,1437.750
7.525374889373779,0,0,12779,1597.375
7.533138990402222,0,0,15961,1995.125
7.540952205657959,1,1,7919,989.875
7.5487589836120605,0,0,15688,1961.000
7.556579351425171,0,0,13031,1628.875
7.564387321472168,0,0,11437,1429.625
7.5722010135650635,0,0,16215,2026.875
7.58001708984375,1,1,9095,1136.875
7.587821960449219,0,0,15345,1918.125
7.595640182495117,0,0,13910,1738.750
7.6034464836120605,0,0,9494,1186.750
7.611259460449219,0,0,16151,2018.875
7.6190595626831055,1,1,10250,1281.250
7.626887798309326,0,0,14900,1862.500
7.63469934463501,0,0,15260,1907.500
7.642527103424072,0,0,8479,1059.875
7.650329351425171,0,0,15981,1997.625
7.658145904541016,0,0,11049,1381.125
7.665966749191284,0,0,14045,1755.625
7.673760652542114,0,0,15529,1941.125
7.681567907333374,1,1,8211,1026.375
7.689393758773804,0,0,15722,1965.250
7.697205305099487,0,0,12496,1562.000
7.705012083053589,0,0,13072,1634.000
7.712825298309326,0,0,15866,1983.250
7.720635652542114,1,1,8812,1101.500
7.7284557819366455,0,0,15341,1917.625
7.736266136169434,0,0,13558,1694.750
7.7440760135650635,0,0,11755,1469.375
7.751888036727905,0,0,16225,2028.125
7.7597033977508545,1,1,10377,1297.125
7.767521858215332,0,0,14935,1866.875
7.77536678314209,0,0,14690,1836.250
7.783139705657959,0,0,9909,1238.625
7.790945291519165,0,0,16163,2020.375
7.798770189285278,0,0,11198,1399.750
7.806581258773804,0,0,14157,1769.625
7.8166468143463135,0,0,13298,1662.250
7.822218894958496,0,0,8383,1047.875
7.830017566680908,0,0,16071,2008.875
7.837825298309326,0,0,13707,1713.375
7.845643043518066,0,0,13505,1688.125
7.853454113006592,0,0,15637,1954.625
7.861262321472168,1,1,7430,928.750
7.869072437286377,0,0,15345,1918.125
7.876891374588013,0,0,14071,1758.875
7.884697675704956,0,0,12101,1512.625
7.892510890960693,0,0,16133,2016.625
7.900308609008789,1,1,8515,1064.375
7.9080963134765625,0,0,14921,1865.125
7.915913343429565,0,0,14900,1862.500
7.923719882965088,0,0,10476,1309.500
7.93152117729187,0,0,16203,2025.375
7.93935227394104,1,1,10348,1293.500
7.947160482406616,0,0,14373,1796.625
7.954971551895142,0,0,15260,1907.500
7.962780237197876,0,0,8223,1027.875
7.970602035522461,0,0,16010,2001.250
7.978408575057983,0,0,11027,1378.375
7.986222743988037,0,0,13214,1651.750
7.994030237197876,0,0,15708,1963.500
8.001891374588013,1,1,7621,952.625
8.009714126586914,0,0,15782,1972.750
8.017505168914795,0,0,12085,1510.625
8.02536416053772,0,0,12035,1504.375
8.033142566680908,0,0,16166,2020.750
8.040950775146484,1,1,8664,1083.000
8.048763990402222,0,0,15513,1939.125
8.056577682495117,0,0,13339,1667.375
8.064385414123535,0,0,10369,1296.125
8.072200775146484,0,0,16189,2023.625
8.080015897750854,1,1,9927,1240.875
8.087831497192383,0,0,15112,1889.000
8.095640420913696,0,0,14596,1824.500
8.103452444076538,0,0,8619,1077.375
8.111263036727905,0,0,16045,2005.625
8.11906361579895,0,0,10744,1343.000
8.126886367797852,0,0,14404,1800.500
8.13469672203064,0,0,14964,1870.500
8.14251446723938,0,0,7704,963.000
8.15032148361206,0,0,15816,1977.000
8.158139944076538,0,0,12172,1521.500
8.165955305099487,0,0,13696,1712.000
8.173760652542114,0,0,15920,1990.000
8.181562900543213,1,1,8888,1111.000
8.189391613006592,0,0,15559,1944.875
8.197206258773804,0,0,12995,1624.375
8.205013990402222,0,0,12272,1534.000
8.212826251983643,0,0,15982,1997.750
8.22063422203064,1,1,9235,1154.375
8.22845196723938,0,0,15087,1885.875
8.236265182495117,0,0,14628,1828.500
8.244079828262329,0,0,11065,1383.125
8.251885890960693,0,0,16201,2025.125
8.259705305099487,1,1,10729,1341.125
8.26750922203064,0,0,14544,1818.000
8.27536654472351,0,0,15343,1917.875
8.283137083053589,0,0,9078,1134.750
8.29095458984375,0,0,16099,2012.375
8.29876160621643,0,0,12020,1502.500
8.306572675704956,0,0,13624,1703.000
8.314385890960693,0,0,15523,1940.375
8.322199583053589,1,1,7588,948.500
8.330018043518066,0,0,15859,1982.375
8.337821960449219,0,0,12890,1611.250
8.345642566680908,0,0,12500,1562.500
8.353456735610962,0,0,16122,2015.250
8.361261129379272,1,1,8382,1047.750
8.369345664978027,0,0,15612,1951.500
8.377089500427246,0,0,13989,1748.625
8.384714126586914,0,0,10937,1367.125
8.392511129379272,0,0,16212,2026.500
8.400328874588013,1,1,9508,1188.500
8.408138751983643,0,0,14617,1827.125
8.4159574508667,0,0,14948,1868.500
8.423761129379272,0,0,8740,1092.500
8.431580543518066,0,0,16048,2006.000
8.439464569091797,0,0,9600,1200.000
8.447198629379272,0,0,13581,1697.625
8.455002784729004,0,0,15732,1966.500
8.462826251983643,1,0,7955,994.375
8.47063684463501,0,0,15949,1993.625
8.478452682495117,0,0,11717,1464.625
8.486270189285278,0,0,12579,1572.375
8.494073867797852,0,0,15832,1979.000
8.501885175704956,1,1,7652,956.500
8.509706735610962,0,0,15637,1954.625
8.517526865005493,0,0,13256,1657.000
8.525383234024048,0,0,11357,1419.625
8.533139705657959,0,0,16197,2024.625
8.540952682495117,1,1,8932,1116.500
8.548764944076538,0,0,15250,1906.250
8.556581735610962,0,0,13580,1697.500
8.564387321472168,0,0,9037,1129.625
8.572204828262329,0,0,16153,2019.125
8.580007076263428,1,1,10733,1341.625
8.587843894958496,0,0,14851,1856.375
8.59564733505249,0,0,14674,1834.250
8.603458404541016,0,0,7832,979.000
8.61126708984375,0,0,15963,1995.375
8.619081497192383,0,0,11673,1459.125
8.626881122589111,0,0,14136,1767.000
8.634684801101685,0,0,15861,1982.625
8.642517805099487,1,1,8714,1089.250
8.65034532546997,0,0,15770,1971.250
8.65813136100769,0,0,13059,1632.375
8.66596007347107,0,0,13214,1651.750
8.673766374588013,0,0,16129,2016.125
8.681572914123535,1,1,9477,1184.625
8.689391851425171,0,0,15378,1922.250
8.69720721244812,0,0,13984,1748.000
8.705015420913696,0,0,11672,1459.000
8.712827682495117,0,0,16153,2019.125
8.720639705657959,1,1,10047,1255.875
8.728463172912598,0,0,14810,1851.250
8.736268520355225,0,0,15010,1876.250
8.744078874588013,0,0,9700,1212.500
8.751889705657959,0,0,16101,2012.625
8.759707927703857,0,0,10722,1340.250
8.767520904541016,0,0,13927,1740.875
8.77537751197815,0,0,15456,1932.000
8.783140182495117,0,0,8136,1017.000
8.790956497192383,0,0,16015,2001.875
8.798765420913696,0,0,12867,1608.375
8.806585311889648,0,0,13213,1651.625
8.8143892288208,0,0,15955,1994.375
8.822201490402222,1,1,7953,994.125
8.830017805099487,0,0,15354,1919.250
8.837828159332275,0,0,13694,1711.750
8.845638990402222,0,0,11848,1481.000
8.853452444076538,0,0,16217,2027.125
8.86126446723938,1,1,8988,1123.500
8.869078159332275,0,0,14910,1863.750
8.876892328262329,0,0,14717,1839.625
8.884698629379272,0,0,9854,1231.750
8.892514944076538,0,0,16139,2017.375
8.900327682495117,1,1,9593,1199.125
8.908138513565063,0,0,14070,1758.750
8.915955781936646,0,0,15011,1876.375
8.923763990402222,0,0,7851,981.375
8.931565284729004,0,0,16019,2002.375
8.939395189285278,0,0,11646,1455.750
8.947206497192383,0,0,13515,1689.375
8.955009937286377,0,0,16276,2034.500
8.962825298309326,1,1,8901,1112.625
8.970639944076538,0,0,15872,1984.000
8.978455781936646,0,0,12238,1529.750
8.986274003982544,0,0,11837,1479.625
8.994076013565063,0,0,16159,2019.875
9.001885652542114,1,1,8735,1091.875
9.009706974029541,0,0,15476,1934.500
9.017523765563965,0,0,13735,1716.875
9.025367259979248,0,0,10307,1288.375
9.033132076263428,0,0,16180,2022.500
9.040953874588013,1,1,10098,1262.250
9.048771619796753,0,0,15054,1881.750
9.056570529937744,0,0,14693,1836.625
9.064386129379272,0,0,8611,1076.375
9.072207689285278,0,0,16030,2003.750
9.080016374588013,0,0,10912,1364.000
9.087833166122437,0,0,14285,1785.625
9.095637083053589,0,0,14740,1842.500
9.103457927703857,1,1,7393,924.125
9.11126446723938,0,0,15737,1967.125
9.119084358215332,0,0,12060,1507.500
9.126890897750854,0,0,13421,1677.625
9.134700536727905,0,0,15635,1954.375
9.142508029937744,1,1,8341,1042.625
9.150329351425171,0,0,15485,1935.625
9.158142328262329,0,0,13788,1723.500
9.165960788726807,0,0,12506,1563.250
9.173764944076538,0,0,16113,2014.125
9.181572437286377,1,1,9601,1200.125
9.189391374588013,0,0,15064,1883.000
9.197202205657959,0,0,14378,1797.250
9.205016613006592,0,0,10602,1325.250
9.212827920913696,0,0,16159,2019.875
9.220645189285278,1,1,10564,1320.500
9.2284517288208,0,0,14405,1800.625
9.236269474029541,0,0,14962,1870.250
9.244074821472168,0,0,8492,1061.500
9.25188946723938,0,0,15823,1977.875
9.2597017288208,0,0,12108,1513.500
9.267518043518066,0,0,13609,1701.125
9.275373935699463,0,0,15666,1958.250
9.283136129379272,1,1,7664,958.000
9.290952444076538,0,0,15502,1937.750
9.298784494400024,0,0,13229,1653.625
9.306581974029541,0,0,12324,1540.500
9.314385414123535,0,0,15960,1995.000
9.322202682495117,1,1,7933,991.625
9.330017805099487,0,0,15060,1882.500
9.337830305099487,0,0,14288,1786.000
9.345643043518066,0,0,10863,1357.875
9.353449583053589,0,0,16233,2029.125
9.361262559890747,1,1,9633,1204.125
9.369346380233765,0,0,15255,1906.875
9.377103328704834,0,0,15068,1883.500
9.384713888168335,0,0,8752,1094.000
9.39251446723938,0,0,16095,2011.875
9.40032696723938,0,0,10337,1292.125
9.408143997192383,0,0,13649,1706.125
9.415955543518066,0,0,15761,1970.125
9.423765897750854,1,0,7918,989.750
9.431581497192383,0,0,15922,1990.250
9.43946647644043,0,0,11688,1461.000
9.447208166122437,0,0,12512,1564.000
9.45501160621643,0,0,15918,1989.750
9.462827920913696,1,1,7817,977.125
9.470638990402222,0,0,15625,1953.125
9.478456974029541,0,0,13255,1656.875
9.486273527145386,0,0,11046,1380.750
9.494079828262329,0,0,16202,2025.250
9.501892328262329,1,1,9112,1139.000
9.509705781936646,0,0,15274,1909.250
9.517525911331177,0,0,14296,1787.000
9.52540111541748,0,0,9088,1136.000
9.533146858215332,0,0,16092,2011.500
9.540951490402222,1,1,9613,1201.625
9.548768281936646,0,0,14568,1821.000
9.556578397750854,0,0,14562,1820.250
9.564391851425171,0,0,7651,956.375
9.572198867797852,0,0,15951,1993.875
9.580014944076538,0,0,11783,1472.875
9.587826251983643,0,0,14021,1752.625
9.59564471244812,0,0,15567,1945.875
9.603454351425171,1,1,8203,1025.375
9.611269474029541,0,0,15655,1956.875
9.619077205657959,0,0,12341,1542.625
9.626892566680908,0,0,12840,1605.000
9.63470196723938,0,0,16141,2017.625
9.64251446723938,1,1,9512,1189.000
9.65031623840332,0,0,15315,1914.375
9.658143520355225,0,0,13298,1662.250
9.665958166122437,0,0,11109,1388.625
9.673762798309326,0,0,16130,2016.250
9.68157434463501,1,1,9873,1234.125
9.689390897750854,0,0,14757,1844.625
9.697192907333374,0,0,14758,1844.750
9.704995393753052,0,0,9477,1184.625
9.712828636169434,0,0,15989,1998.625
9.720642566680908,0,0,11172,1396.500
9.7284677028656,0,0,13964,1745.500
9.736271619796753,0,0,15495,1936.875
9.744073152542114,0,1,8022,1002.750
9.75189208984375,0,0,15751,1968.875
9.759702920913696,0,0,12848,1606.000
9.769816875457764,0,0,15111,1888.875
9.775385856628418,0,0,16241,2030.125
9.783141613006592,1,1,8596,1074.500
9.790955543518066,0,0,15456,1932.000
9.798789978027344,0,0,14022,1752.750
9.806549549102783,0,0,11801,1475.125
9.814346313476562,0,0,16219,2027.375
9.822164535522461,1,1,8839,1104.875
9.829973459243774,0,0,14773,1846.625
9.837789297103882,0,0,14418,1802.250
9.845597267150879,0,0,9418,1177.250
9.853411436080933,0,0,16140,2017.500
9.861221313476562,1,1,9457,1182.125
9.869033098220825,0,0,14119,1764.875
9.876849889755249,0,0,15728,1966.000
9.884658575057983,0,0,8444,1055.500
9.8924720287323,0,0,16061,2007.625
9.900310516357422,0,0,10913,1364.125
9.908146381378174,0,0,13101,1637.625
9.915951013565063,0,0,16013,2001.625
9.923766851425171,1,1,8040,1005.000
9.931560754776001,0,0,15810,1976.250
9.939393043518066,0,0,12123,1515.375
9.947206735610962,0,0,11373,1421.625
9.955008506774902,0,0,15807,1975.875
9.962825059890747,1,1,7676,959.500
9.97063684463501,0,0,15225,1903.125
9.97845196723938,0,0,11316,1414.500
9.986267328262329,0,0,7962,995.250
9.994076490402222,0,0,15192,1899.000
10.001885890960693,1,1,7095,886.875
