Timestamp,LO_plus,LO_minus,Raw_ADC,Voltage_mV
1764974445.7262118,0,0,9,1.125
1764974445.7280085,0,0,10,1.250
1764974445.7317705,0,0,12,1.500
1764974445.7357602,0,0,15,1.875
1764974445.739761,0,0,14,1.750
1764974445.7437606,0,0,16,2.000
1764974445.7478027,0,0,17,2.125
1764974445.7518656,0,0,18,2.250
1764974445.755777,0,0,20,2.500
1764974445.7597644,0,0,19,2.375
1764974445.7637577,0,0,20,2.500
1764974445.7677615,0,0,21,2.625
1764974445.7717645,0,0,22,2.750
1764974445.7757592,0,0,23,2.875
1764974445.7797709,0,0,21,2.625
1764974445.78377,0,0,23,2.875
1764974445.7877681,0,0,23,2.875
1764974445.7921824,0,0,24,3.000
1764974445.795868,0,0,25,3.125
1764974445.7997816,0,0,23,2.875
1764974445.8037632,0,0,24,3.000
1764974445.8077574,0,0,24,3.000
1764974445.8117669,0,0,25,3.125
1764974445.8157606,0,0,26,3.250
1764974445.8197615,0,0,24,3.000
1764974445.8237631,0,0,25,3.125
1764974445.8277583,0,0,25,3.125
1764974445.831781,0,0,26,3.250
1764974445.8357697,0,0,26,3.250
1764974445.8397684,0,0,24,3.000
1764974445.8437588,0,0,25,3.125
1764974445.8477583,0,0,25,3.125
1764974445.85177,0,0,26,3.250
1764974445.8557706,0,0,27,3.375
1764974445.8597715,0,0,25,3.125
1764974445.8637667,0,0,26,3.250
1764974445.8677664,0,0,26,3.250
1764974445.8717735,0,0,26,3.250
1764974445.8757668,0,0,27,3.375
1764974445.8797681,0,0,25,3.125
1764974445.8837671,0,0,25,3.125
1764974445.8877678,0,0,25,3.125
1764974445.8917675,0,0,26,3.250
1764974445.8957665,0,0,27,3.375
1764974445.8997674,0,0,25,3.125
1764974445.9037673,0,0,26,3.250
1764974445.9077678,0,0,26,3.250
1764974445.911774,0,0,26,3.250
1764974445.915768,0,0,27,3.375
1764974445.9197712,0,0,25,3.125
1764974445.9238353,0,0,25,3.125
1764974445.927794,0,0,25,3.125
1764974445.9317696,0,0,26,3.250
1764974445.9357593,0,0,27,3.375
1764974445.9397702,0,0,25,3.125
1764974445.943767,0,0,25,3.125
1764974445.9477656,0,0,26,3.250
1764974445.9517667,0,0,26,3.250
1764974445.955759,0,0,28,3.500
1764974445.9597702,0,0,25,3.125
1764974445.9637675,0,0,25,3.125
1764974445.967764,0,0,26,3.250
1764974445.9717689,0,0,26,3.250
1764974445.9757657,0,0,27,3.375
1764974445.9797697,0,0,25,3.125
1764974445.9837658,0,0,25,3.125
1764974445.9877698,0,0,26,3.250
1764974445.9918857,0,0,26,3.250
1764974445.9958057,0,0,27,3.375
1764974445.999773,0,0,26,3.250
1764974446.0038218,0,0,25,3.125
1764974446.007779,0,0,25,3.125
1764974446.01177,0,0,26,3.250
1764974446.0157564,0,0,27,3.375
1764974446.0197678,0,0,26,3.250
1764974446.023769,0,0,25,3.125
1764974446.0277684,0,0,26,3.250
1764974446.031767,0,0,26,3.250
1764974446.0357594,0,0,27,3.375
1764974446.03977,0,0,26,3.250
1764974446.0437667,0,0,25,3.125
1764974446.047767,0,0,25,3.125
1764974446.0517695,0,0,26,3.250
1764974446.0557709,0,0,27,3.375
1764974446.0597703,0,0,26,3.250
1764974446.0637665,0,0,25,3.125
1764974446.0677662,0,0,26,3.250
1764974446.071769,0,0,27,3.375
1764974446.0757682,0,0,26,3.250
1764974446.0797684,0,0,25,3.125
1764974446.0837677,0,0,26,3.250
1764974446.087767,0,0,26,3.250
1764974446.0917702,0,0,27,3.375
1764974446.0957665,0,0,26,3.250
1764974446.0997708,0,0,25,3.125
1764974446.1037672,0,0,26,3.250
1764974446.1077669,0,0,27,3.375
1764974446.1117702,0,0,27,3.375
1764974446.1157653,0,0,26,3.250
1764974446.1197684,0,0,25,3.125
1764974446.1238294,0,0,26,3.250
1764974446.1277788,0,0,26,3.250
1764974446.1317673,0,0,27,3.375
1764974446.1357565,0,0,26,3.250
1764974446.1397612,0,0,25,3.125
1764974446.1437562,0,0,26,3.250
1764974446.1477578,0,0,26,3.250
1764974446.151766,0,0,27,3.375
1764974446.1557574,0,0,26,3.250
1764974446.1597662,0,0,25,3.125
1764974446.1637657,0,0,26,3.250
1764974446.167767,0,0,26,3.250
1764974446.1717708,0,0,27,3.375
1764974446.1757662,0,0,26,3.250
1764974446.1797705,0,0,25,3.125
1764974446.1837652,0,0,26,3.250
1764974446.1877635,0,0,26,3.250
1764974446.191762,0,0,27,3.375
1764974446.1957576,0,0,26,3.250
1764974446.1998065,0,0,25,3.125
1764974446.2037652,0,0,25,3.125
1764974446.2077618,0,0,26,3.250
1764974446.2117665,0,0,27,3.375
1764974446.2157655,0,0,27,3.375
1764974446.2197657,0,0,25,3.125
1764974446.2237647,0,0,25,3.125
1764974446.2277637,0,0,27,3.375
1764974446.2318103,0,0,27,3.375
1764974446.235828,0,0,27,3.375
1764974446.239848,0,0,25,3.125
1764974446.2438464,0,0,26,3.250
1764974446.2478447,0,0,27,3.375
1764974446.2518377,0,0,27,3.375
1764974446.2558293,0,0,27,3.375
1764974446.2598414,0,0,25,3.125
1764974446.2638438,0,0,26,3.250
1764974446.2678432,0,0,26,3.250
1764974446.2718482,0,0,27,3.375
1764974446.275841,0,0,26,3.250
1764974446.2798488,0,0,24,3.000
1764974446.2838435,0,0,26,3.250
1764974446.2878737,0,0,26,3.250
1764974446.2918818,0,0,27,3.375
1764974446.2958515,0,0,27,3.375
1764974446.2998855,0,0,25,3.125
1764974446.3038385,0,0,26,3.250
1764974446.3078804,0,0,26,3.250
1764974446.311847,0,0,27,3.375
1764974446.3158286,0,0,27,3.375
1764974446.319844,0,0,25,3.125
1764974446.3239024,0,0,26,3.250
1764974446.3278487,0,0,27,3.375
1764974446.3319623,0,0,27,3.375
1764974446.3359337,0,0,26,3.250
1764974446.339954,0,0,25,3.125
1764974446.3439193,0,0,26,3.250
1764974446.3479874,0,0,26,3.250
1764974446.3519242,0,0,27,3.375
1764974446.355933,0,0,27,3.375
1764974446.359944,0,0,25,3.125
1764974446.3639045,0,0,26,3.250
1764974446.3679044,0,0,26,3.250
1764974446.371971,0,0,27,3.375
1764974446.375927,0,0,27,3.375
1764974446.3799598,0,0,24,3.000
1764974446.383903,0,0,26,3.250
1764974446.3878987,0,0,26,3.250
1764974446.3919137,0,0,27,3.375
1764974446.3959117,0,0,27,3.375
1764974446.3999279,0,0,25,3.125
1764974446.4038987,0,0,26,3.250
1764974446.407982,0,0,26,3.250
1764974446.4119208,0,0,27,3.375
1764974446.4158993,0,0,27,3.375
1764974446.4199483,0,0,25,3.125
1764974446.4239168,0,0,26,3.250
1764974446.4279203,0,0,26,3.250
1764974446.432075,0,0,27,3.375
1764974446.435894,0,0,27,3.375
1764974446.4399102,0,0,25,3.125
1764974446.443855,0,0,26,3.250
1764974446.4478538,0,0,27,3.375
1764974446.4518769,0,0,27,3.375
1764974446.4558752,0,0,25,3.125
1764974446.4598901,0,0,26,3.250
1764974446.4638562,0,0,26,3.250
1764974446.467859,0,0,27,3.375
1764974446.4718814,0,0,27,3.375
1764974446.4758759,0,0,25,3.125
1764974446.479897,0,0,26,3.250
1764974446.4838576,0,0,26,3.250
1764974446.4878554,0,0,27,3.375
1764974446.4918754,0,0,27,3.375
1764974446.4958754,0,0,25,3.125
1764974446.4998786,0,0,26,3.250
1764974446.5038753,0,0,26,3.250
1764974446.5078745,0,0,27,3.375
1764974446.5118759,0,0,27,3.375
1764974446.5158734,0,0,25,3.125
1764974446.5198982,0,0,25,3.125
1764974446.5239499,0,0,26,3.250
1764974446.5278873,0,0,26,3.250
1764974446.5319118,0,0,27,3.375
1764974446.5358562,0,0,25,3.125
1764974446.5398736,0,0,25,3.125
1764974446.5438738,0,0,26,3.250
1764974446.5478745,0,0,26,3.250
1764974446.5518668,0,0,27,3.375
1764974446.5559685,0,0,26,3.250
1764974446.5599184,0,0,25,3.125
1764974446.5638592,0,0,26,3.250
1764974446.5678585,0,0,26,3.250
1764974446.5718775,0,0,27,3.375
1764974446.5758755,0,0,25,3.125
1764974446.5798643,0,0,25,3.125
1764974446.583857,0,0,25,3.125
1764974446.5878549,0,0,26,3.250
1764974446.5918717,0,0,27,3.375
1764974446.5958679,0,0,25,3.125
1764974446.5998762,0,0,26,3.250
1764974446.6038694,0,0,26,3.250
1764974446.6078682,0,0,26,3.250
1764974446.6118717,0,0,27,3.375
1764974446.6158738,0,0,26,3.250
1764974446.6198738,0,0,25,3.125
1764974446.6238718,0,0,26,3.250
1764974446.6278682,0,0,26,3.250
1764974446.6319108,0,0,27,3.375
1764974446.6358538,0,0,25,3.125
1764974446.6398602,0,0,25,3.125
1764974446.6438596,0,0,26,3.250
1764974446.647857,0,0,26,3.250
1764974446.6518838,0,0,27,3.375
1764974446.6558716,0,0,26,3.250
1764974446.6598735,0,0,25,3.125
1764974446.663871,0,0,26,3.250
1764974446.667883,0,0,27,3.375
1764974446.6718779,0,0,28,3.500
1764974446.675866,0,0,26,3.250
1764974446.6798768,0,0,25,3.125
1764974446.6838646,0,0,26,3.250
1764974446.6878684,0,0,27,3.375
1764974446.6918697,0,0,27,3.375
1764974446.6958654,0,0,26,3.250
1764974446.6998672,0,0,26,3.250
1764974446.7038693,0,0,26,3.250
1764974446.7078698,0,0,26,3.250
1764974446.7118754,0,0,27,3.375
1764974446.715867,0,0,26,3.250
1764974446.7198713,0,0,25,3.125
1764974446.728995,0,0,27,3.375
1764974446.7319274,0,0,27,3.375
1764974446.7358592,0,0,25,3.125
1764974446.7398605,0,0,25,3.125
1764974446.7438567,0,0,26,3.250
1764974446.7478516,0,0,26,3.250
1764974446.7518578,0,0,28,3.500
1764974446.755856,0,0,26,3.250
1764974446.7598562,0,0,25,3.125
1764974446.7638533,0,0,26,3.250
1764974446.7678537,0,0,26,3.250
1764974446.7718585,0,0,27,3.375
1764974446.7758517,0,0,26,3.250
1764974446.7798724,0,0,25,3.125
1764974446.7838712,0,0,26,3.250
1764974446.7878726,0,0,26,3.250
1764974446.7922409,0,0,27,3.375
1764974446.7960665,0,0,27,3.375
1764974446.799886,0,0,25,3.125
1764974446.8038585,0,0,26,3.250
1764974446.8078556,0,0,26,3.250
1764974446.8118665,0,0,27,3.375
1764974446.8158498,0,0,26,3.250
1764974446.8198555,0,0,25,3.125
1764974446.8238502,0,0,26,3.250
1764974446.8278515,0,0,27,3.375
1764974446.8320022,0,0,27,3.375
1764974446.8359783,0,0,25,3.125
1764974446.8399296,0,0,26,3.250
1764974446.8438838,0,0,26,3.250
1764974446.8478718,0,0,27,3.375
1764974446.8518672,0,0,26,3.250
1764974446.8558679,0,0,25,3.125
1764974446.859877,0,0,26,3.250
1764974446.8638692,0,0,26,3.250
1764974446.8678658,0,0,27,3.375
1764974446.8718648,0,0,27,3.375
1764974446.8758533,0,0,25,3.125
1764974446.8798716,0,0,26,3.250
1764974446.8838694,0,0,26,3.250
1764974446.887866,0,0,27,3.375
1764974446.8918648,0,0,27,3.375
1764974446.8958623,0,0,25,3.125
1764974446.899876,0,0,26,3.250
1764974446.9038727,0,0,26,3.250
1764974446.9078815,0,0,27,3.375
1764974446.9118764,0,0,27,3.375
1764974446.915867,0,0,25,3.125
1764974446.9198658,0,0,25,3.125
1764974446.9238713,0,0,26,3.250
1764974446.9279473,0,0,27,3.375
1764974446.9319232,0,0,27,3.375
1764974446.9358532,0,0,25,3.125
1764974446.9398718,0,0,25,3.125
1764974446.943869,0,0,26,3.250
1764974446.9478683,0,0,27,3.375
1764974446.9518669,0,0,27,3.375
1764974446.9558558,0,0,25,3.125
1764974446.9598665,0,0,26,3.250
1764974446.9638653,0,0,26,3.250
1764974446.9678657,0,0,27,3.375
1764974446.971869,0,0,27,3.375
1764974446.9758651,0,0,25,3.125
1764974446.9798656,0,0,26,3.250
1764974446.9838629,0,0,26,3.250
1764974446.9878643,0,0,27,3.375
1764974446.9918687,0,0,27,3.375
1764974446.995866,0,0,26,3.250
1764974446.999868,0,0,26,3.250
1764974447.003866,0,0,26,3.250
1764974447.0078616,0,0,27,3.375
1764974447.011864,0,0,27,3.375
1764974447.0158637,0,0,25,3.125
1764974447.0198689,0,0,26,3.250
1764974447.0238678,0,0,26,3.250
1764974447.0278668,0,0,26,3.250
1764974447.031903,0,0,27,3.375
1764974447.0358653,0,0,25,3.125
1764974447.039865,0,0,26,3.250
1764974447.0438647,0,0,26,3.250
1764974447.047864,0,0,27,3.375
1764974447.0518656,0,0,27,3.375
1764974447.0558631,0,0,25,3.125
1764974447.059866,0,0,26,3.250
1764974447.0638676,0,0,26,3.250
1764974447.0678678,0,0,27,3.375
1764974447.0718672,0,0,27,3.375
1764974447.0758672,0,0,25,3.125
1764974447.0798674,0,0,26,3.250
1764974447.083866,0,0,26,3.250
1764974447.0878665,0,0,27,3.375
1764974447.09187,0,0,27,3.375
1764974447.095868,0,0,25,3.125
1764974447.0999093,0,0,26,3.250
1764974447.1038654,0,0,25,3.125
1764974447.1078653,0,0,27,3.375
1764974447.1118689,0,0,28,3.500
1764974447.115867,0,0,25,3.125
1764974447.119869,0,0,26,3.250
1764974447.1238735,0,0,26,3.250
1764974447.1279757,0,0,26,3.250
1764974447.1319418,0,0,27,3.375
1764974447.1358707,0,0,25,3.125
1764974447.1398637,0,0,26,3.250
1764974447.1439517,0,0,26,3.250
1764974447.1482158,0,0,26,3.250
1764974447.1522748,0,0,28,3.500
1764974447.1562874,0,0,25,3.125
1764974447.1602721,0,0,26,3.250
1764974447.1643002,0,0,26,3.250
1764974447.168401,0,0,26,3.250
1764974447.1722286,0,0,28,3.500
1764974447.1763027,0,0,26,3.250
1764974447.1802857,0,0,26,3.250
1764974447.1842952,0,0,27,3.375
1764974447.1883874,0,0,27,3.375
1764974447.1922662,0,0,26,3.250
1764974447.1962907,0,0,26,3.250
1764974447.200179,0,0,26,3.250
1764974447.2040784,0,0,27,3.375
1764974447.2080736,0,0,27,3.375
1764974447.212043,0,0,25,3.125
1764974447.2160578,0,0,25,3.125
1764974447.2201562,0,0,26,3.250
1764974447.2240565,0,0,26,3.250
1764974447.2280536,0,0,28,3.500
1764974447.2321358,0,0,25,3.125
1764974447.23607,0,0,26,3.250
1764974447.2401166,0,0,26,3.250
1764974447.2439964,0,0,26,3.250
1764974447.2480013,0,0,27,3.375
1764974447.2520063,0,0,26,3.250
1764974447.2559938,0,0,25,3.125
1764974447.25992,0,0,26,3.250
1764974447.2638786,0,0,26,3.250
1764974447.2678456,0,0,28,3.500
1764974447.2718482,0,0,25,3.125
1764974447.275829,0,0,26,3.250
1764974447.2798274,0,0,26,3.250
1764974447.2838163,0,0,27,3.375
1764974447.2878206,0,0,27,3.375
1764974447.2918222,0,0,25,3.125
1764974447.2958167,0,0,26,3.250
1764974447.2998402,0,0,25,3.125
1764974447.303825,0,0,27,3.375
1764974447.3078196,0,0,27,3.375
1764974447.3119516,0,0,26,3.250
1764974447.316039,0,0,26,3.250
1764974447.3200912,0,0,25,3.125
1764974447.324028,0,0,26,3.250
1764974447.328023,0,0,27,3.375
1764974447.3320456,0,0,25,3.125
1764974447.3360395,0,0,25,3.125
1764974447.3400698,0,0,25,3.125
1764974447.344034,0,0,26,3.250
1764974447.3480341,0,0,27,3.375
1764974447.3520613,0,0,26,3.250
1764974447.3560326,0,0,25,3.125
1764974447.3600674,0,0,25,3.125
1764974447.3640146,0,0,26,3.250
1764974447.368054,0,0,27,3.375
1764974447.3720822,0,0,26,3.250
1764974447.3760223,0,0,25,3.125
1764974447.3801415,0,0,26,3.250
1764974447.384223,0,0,27,3.375
1764974447.3882823,0,0,27,3.375
1764974447.3922255,0,0,26,3.250
1764974447.3961396,0,0,25,3.125
1764974447.4000525,0,0,26,3.250
1764974447.4039772,0,0,26,3.250
1764974447.4079409,0,0,26,3.250
1764974447.412026,0,0,26,3.250
1764974447.416027,0,0,25,3.125
1764974447.420051,0,0,25,3.125
1764974447.4241853,0,0,26,3.250
1764974447.428264,0,0,27,3.375
1764974447.432205,0,0,26,3.250
1764974447.4361901,0,0,25,3.125
1764974447.4401648,0,0,26,3.250
1764974447.4443114,0,0,26,3.250
1764974447.4484615,0,0,27,3.375
1764974447.4525342,0,0,26,3.250
1764974447.456494,0,0,25,3.125
1764974447.4600084,0,0,25,3.125
1764974447.464308,0,0,26,3.250
1764974447.4684014,0,0,27,3.375
1764974447.4723406,0,0,26,3.250
1764974447.4763305,0,0,25,3.125
1764974447.4801815,0,0,25,3.125
1764974447.4840736,0,0,26,3.250
1764974447.4884245,0,0,27,3.375
1764974447.4923558,0,0,26,3.250
1764974447.4963458,0,0,25,3.125
1764974447.5003083,0,0,25,3.125
1764974447.5041096,0,0,26,3.250
1764974447.5079112,0,0,27,3.375
1764974447.5118587,0,0,27,3.375
1764974447.5157604,0,0,25,3.125
1764974447.5197504,0,0,26,3.250
1764974447.5237489,0,0,26,3.250
1764974447.5278172,0,0,26,3.250
1764974447.5317683,0,0,26,3.250
1764974447.53575,0,0,25,3.125
1764974447.5397494,0,0,26,3.250
1764974447.5437455,0,0,26,3.250
1764974447.547747,0,0,27,3.375
1764974447.5517511,0,0,27,3.375
1764974447.5557492,0,0,25,3.125
1764974447.5597532,0,0,26,3.250
1764974447.5637481,0,0,26,3.250
1764974447.5677464,0,0,27,3.375
1764974447.5717535,0,0,27,3.375
1764974447.5757518,0,0,25,3.125
1764974447.5797527,0,0,26,3.250
1764974447.5837512,0,0,26,3.250
1764974447.5877497,0,0,27,3.375
1764974447.5917537,0,0,27,3.375
1764974447.5957503,0,0,25,3.125
1764974447.599753,0,0,26,3.250
1764974447.6037512,0,0,27,3.375
1764974447.6077483,0,0,27,3.375
1764974447.611752,0,0,25,3.125
1764974447.6157496,0,0,26,3.250
1764974447.6197546,0,0,25,3.125
1764974447.6237504,0,0,27,3.375
1764974447.6277504,0,0,27,3.375
1764974447.6317492,0,0,25,3.125
1764974447.6357498,0,0,26,3.250
1764974447.639747,0,0,26,3.250
1764974447.64374,0,0,26,3.250
1764974447.6477392,0,0,27,3.375
1764974447.6517496,0,0,25,3.125
1764974447.6557374,0,0,26,3.250
1764974447.659748,0,0,26,3.250
1764974447.663748,0,0,27,3.375
1764974447.6677587,0,0,27,3.375
1764974447.6718535,0,0,24,3.000
1764974447.675768,0,0,25,3.125
1764974447.6798086,0,0,26,3.250
1764974447.683786,0,0,26,3.250
1764974447.687768,0,0,28,3.500
1764974447.691753,0,0,25,3.125
1764974447.6957407,0,0,25,3.125
1764974447.699752,0,0,26,3.250
1764974447.7037485,0,0,26,3.250
1764974447.707749,0,0,27,3.375
1764974447.7117453,0,0,25,3.125
1764974447.715741,0,0,26,3.250
1764974447.7197526,0,0,26,3.250
1764974447.723771,0,0,27,3.375
1764974447.729816,0,0,27,3.375
1764974447.7317975,0,0,25,3.125
1764974447.7357652,0,0,25,3.125
1764974447.7397563,0,0,26,3.250
1764974447.7437403,0,0,27,3.375
1764974447.747737,0,0,27,3.375
1764974447.751752,0,0,25,3.125
1764974447.7557478,0,0,26,3.250
1764974447.759747,0,0,26,3.250
1764974447.7637389,0,0,26,3.250
1764974447.767787,0,0,27,3.375
1764974447.7717686,0,0,25,3.125
1764974447.7757428,0,0,25,3.125
1764974447.7797422,0,0,26,3.250
1764974447.7837458,0,0,27,3.375
1764974447.7877376,0,0,28,3.500
1764974447.7921085,0,0,25,3.125
1764974447.7958472,0,0,26,3.250
1764974447.7998388,0,0,26,3.250
1764974447.8037553,0,0,27,3.375
1764974447.807746,0,0,27,3.375
1764974447.8117535,0,0,25,3.125
1764974447.815746,0,0,26,3.250
1764974447.8197458,0,0,26,3.250
1764974447.8237426,0,0,26,3.250
1764974447.8277438,0,0,27,3.375
1764974447.831751,0,0,26,3.250
1764974447.8357484,0,0,25,3.125
1764974447.8397465,0,0,26,3.250
1764974447.8437371,0,0,26,3.250
1764974447.8477361,0,0,27,3.375
1764974447.8517523,0,0,25,3.125
1764974447.855748,0,0,26,3.250
1764974447.85975,0,0,26,3.250
1764974447.8637435,0,0,26,3.250
1764974447.8677452,0,0,27,3.375
1764974447.8717499,0,0,25,3.125
1764974447.8757443,0,0,26,3.250
1764974447.8797503,0,0,25,3.125
1764974447.8837464,0,0,26,3.250
1764974447.887746,0,0,27,3.375
1764974447.891744,0,0,25,3.125
1764974447.8957362,0,0,26,3.250
1764974447.899748,0,0,26,3.250
1764974447.903746,0,0,26,3.250
1764974447.9077466,0,0,27,3.375
1764974447.911745,0,0,25,3.125
1764974447.9157443,0,0,26,3.250
1764974447.9197485,0,0,26,3.250
1764974447.923747,0,0,26,3.250
1764974447.9278214,0,0,27,3.375
1764974447.931764,0,0,26,3.250
1764974447.9358428,0,0,25,3.125
1764974447.9398263,0,0,26,3.250
1764974447.9438236,0,0,26,3.250
1764974447.947837,0,0,27,3.375
1764974447.9518194,0,0,26,3.250
1764974447.9558113,0,0,25,3.125
1764974447.9598255,0,0,25,3.125
1764974447.9638216,0,0,26,3.250
1764974447.9678235,0,0,27,3.375
1764974447.9718301,0,0,26,3.250
1764974447.9758253,0,0,25,3.125
1764974447.9798272,0,0,26,3.250
1764974447.9838195,0,0,27,3.375
1764974447.9878194,0,0,27,3.375
1764974447.9918275,0,0,26,3.250
1764974447.995824,0,0,26,3.250
1764974447.9998245,0,0,26,3.250
1764974448.0038197,0,0,27,3.375
1764974448.0078268,0,0,25,3.125
1764974448.0118275,0,0,25,3.125
1764974448.0158243,0,0,26,3.250
1764974448.019829,0,0,26,3.250
1764974448.0238278,0,0,27,3.375
1764974448.0278218,0,0,26,3.250
1764974448.0318258,0,0,26,3.250
1764974448.0359554,0,0,26,3.250
1764974448.0399055,0,0,26,3.250
1764974448.0439053,0,0,27,3.375
1764974448.0479028,0,0,26,3.250
1764974448.051904,0,0,26,3.250
1764974448.0558991,0,0,26,3.250
1764974448.0598867,0,0,26,3.250
1764974448.0639021,0,0,27,3.375
1764974448.0678844,0,0,26,3.250
1764974448.0719268,0,0,25,3.125
1764974448.0759015,0,0,25,3.125
1764974448.0799036,0,0,26,3.250
1764974448.0838828,0,0,27,3.375
1764974448.0878842,0,0,26,3.250
1764974448.091906,0,0,25,3.125
1764974448.0959053,0,0,26,3.250
1764974448.0998845,0,0,27,3.375
1764974448.1038806,0,0,27,3.375
1764974448.107885,0,0,27,3.375
1764974448.1119332,0,0,25,3.125
1764974448.1160316,0,0,26,3.250
1764974448.119913,0,0,27,3.375
1764974448.123879,0,0,27,3.375
1764974448.1279593,0,0,27,3.375
1764974448.1319158,0,0,25,3.125
1764974448.1359959,0,0,26,3.250
1764974448.1398768,0,0,26,3.250
1764974448.1438785,0,0,27,3.375
1764974448.1478581,0,0,26,3.250
1764974448.1518526,0,0,25,3.125
1764974448.1558442,0,0,25,3.125
1764974448.1598587,0,0,26,3.250
1764974448.1638582,0,0,26,3.250
1764974448.1678548,0,0,26,3.250
1764974448.1718643,0,0,25,3.125
1764974448.1758375,0,0,26,3.250
1764974448.17986,0,0,26,3.250
1764974448.1838589,0,0,27,3.375
1764974448.187857,0,0,26,3.250
1764974448.1918592,0,0,25,3.125
1764974448.1958525,0,0,26,3.250
1764974448.1998603,0,0,26,3.250
1764974448.2038562,0,0,28,3.500
1764974448.207854,0,0,26,3.250
1764974448.211857,0,0,25,3.125
1764974448.2158532,0,0,26,3.250
1764974448.2198544,0,0,27,3.375
1764974448.2238557,0,0,27,3.375
1764974448.2278557,0,0,26,3.250
1764974448.23186,0,0,25,3.125
1764974448.2358937,0,0,25,3.125
1764974448.2398536,0,0,26,3.250
1764974448.2438524,0,0,27,3.375
1764974448.247855,0,0,26,3.250
1764974448.2518585,0,0,25,3.125
1764974448.2558544,0,0,25,3.125
1764974448.2598543,0,0,26,3.250
1764974448.2638526,0,0,27,3.375
1764974448.2678528,0,0,26,3.250
1764974448.2718558,0,0,25,3.125
1764974448.2758534,0,0,26,3.250
1764974448.2798588,0,0,26,3.250
1764974448.2838366,0,0,27,3.375
1764974448.2878354,0,0,27,3.375
1764974448.291858,0,0,25,3.125
1764974448.2958543,0,0,26,3.250
1764974448.2998528,0,0,26,3.250
1764974448.3038514,0,0,27,3.375
1764974448.3078492,0,0,27,3.375
1764974448.3118508,0,0,25,3.125
1764974448.3158507,0,0,26,3.250
1764974448.319858,0,0,26,3.250
1764974448.3238528,0,0,26,3.250
1764974448.327932,0,0,27,3.375
1764974448.331869,0,0,25,3.125
1764974448.3358886,0,0,26,3.250
1764974448.3398561,0,0,26,3.250
1764974448.343856,0,0,27,3.375
1764974448.3478546,0,0,27,3.375
1764974448.3518405,0,0,25,3.125
1764974448.3558352,0,0,26,3.250
1764974448.3598542,0,0,26,3.250
1764974448.3638566,0,0,27,3.375
1764974448.3678546,0,0,27,3.375
1764974448.3718596,0,0,25,3.125
1764974448.3758516,0,0,25,3.125
1764974448.3798547,0,0,26,3.250
1764974448.3838556,0,0,27,3.375
1764974448.3878553,0,0,27,3.375
1764974448.3918662,0,0,25,3.125
1764974448.3958535,0,0,26,3.250
1764974448.3998525,0,0,26,3.250
1764974448.4038365,0,0,26,3.250
1764974448.4078372,0,0,27,3.375
1764974448.4118578,0,0,25,3.125
1764974448.415858,0,0,26,3.250
1764974448.4198487,0,0,26,3.250
1764974448.423834,0,0,27,3.375
1764974448.427835,0,0,24,3.000
1764974448.4318593,0,0,25,3.125
1764974448.4358578,0,0,26,3.250
1764974448.439861,0,0,26,3.250
1764974448.443852,0,0,27,3.375
1764974448.4478526,0,0,25,3.125
1764974448.451854,0,0,26,3.250
1764974448.4558527,0,0,26,3.250
1764974448.459856,0,0,27,3.375
1764974448.4638515,0,0,27,3.375
1764974448.4678476,0,0,25,3.125
1764974448.4718487,0,0,25,3.125
1764974448.4758492,0,0,26,3.250
1764974448.479858,0,0,26,3.250
1764974448.4838524,0,0,27,3.375
1764974448.4878497,0,0,25,3.125
1764974448.4918542,0,0,26,3.250
1764974448.4958494,0,0,25,3.125
1764974448.4998562,0,0,26,3.250
1764974448.50385,0,0,28,3.500
1764974448.50785,0,0,25,3.125
1764974448.5118525,0,0,25,3.125
1764974448.5158486,0,0,26,3.250
1764974448.519854,0,0,26,3.250
1764974448.5238526,0,0,27,3.375
1764974448.5279324,0,0,25,3.125
1764974448.531873,0,0,25,3.125
1764974448.5358903,0,0,25,3.125
1764974448.539851,0,0,26,3.250
1764974448.5438523,0,0,27,3.375
1764974448.547852,0,0,25,3.125
1764974448.5518389,0,0,25,3.125
1764974448.5558352,0,0,26,3.250
1764974448.5598521,0,0,26,3.250
1764974448.5638494,0,0,27,3.375
1764974448.5678546,0,0,25,3.125
1764974448.571858,0,0,25,3.125
1764974448.5758514,0,0,26,3.250
1764974448.5798523,0,0,27,3.375
1764974448.5838494,0,0,27,3.375
1764974448.58785,0,0,26,3.250
1764974448.5918548,0,0,25,3.125
1764974448.5958526,0,0,26,3.250
1764974448.599854,0,0,26,3.250
1764974448.6038508,0,0,27,3.375
1764974448.6078491,0,0,25,3.125
1764974448.6118526,0,0,25,3.125
1764974448.615852,0,0,25,3.125
1764974448.619861,0,0,27,3.375
1764974448.623858,0,0,27,3.375
1764974448.6278486,0,0,25,3.125
1764974448.6318367,0,0,25,3.125
1764974448.6358712,0,0,26,3.250
1764974448.6398416,0,0,26,3.250
1764974448.6438375,0,0,27,3.375
1764974448.647836,0,0,26,3.250
1764974448.651853,0,0,25,3.125
1764974448.6558487,0,0,26,3.250
1764974448.6598525,0,0,26,3.250
1764974448.6638486,0,0,27,3.375
1764974448.66785,0,0,26,3.250
1764974448.6718378,0,0,25,3.125
1764974448.6758296,0,0,26,3.250
1764974448.6798468,0,0,26,3.250
1764974448.6838515,0,0,27,3.375
1764974448.6878498,0,0,26,3.250
1764974448.6918538,0,0,25,3.125
1764974448.6958468,0,0,26,3.250
1764974448.6998513,0,0,26,3.250
1764974448.7038443,0,0,27,3.375
1764974448.7078474,0,0,26,3.250
1764974448.7118518,0,0,25,3.125
1764974448.7158499,0,0,26,3.250
1764974448.719848,0,0,26,3.250
1764974448.7238464,0,0,27,3.375
1764974448.732785,0,0,26,3.250
1764974448.73592,0,0,26,3.250
1764974448.7398555,0,0,26,3.250
1764974448.7438338,0,0,27,3.375
1764974448.747831,0,0,26,3.250
1764974448.751853,0,0,25,3.125
1764974448.7558508,0,0,25,3.125
1764974448.7598479,0,0,26,3.250
1764974448.7638328,0,0,27,3.375
1764974448.7678313,0,0,26,3.250
1764974448.7718592,0,0,25,3.125
1764974448.7758515,0,0,26,3.250
1764974448.7798548,0,0,26,3.250
1764974448.783852,0,0,27,3.375
1764974448.7878504,0,0,26,3.250
1764974448.7922115,0,0,25,3.125
1764974448.7960422,0,0,26,3.250
1764974448.7998939,0,0,26,3.250
1764974448.803864,0,0,27,3.375
1764974448.807851,0,0,26,3.250
1764974448.8118558,0,0,25,3.125
1764974448.8158455,0,0,26,3.250
1764974448.8198476,0,0,27,3.375
1764974448.8238485,0,0,28,3.500
1764974448.827846,0,0,27,3.375
1764974448.8318505,0,0,25,3.125
1764974448.835887,0,0,26,3.250
1764974448.839851,0,0,26,3.250
1764974448.8438458,0,0,26,3.250
1764974448.847846,0,0,25,3.125
1764974448.8518546,0,0,26,3.250
1764974448.8558643,0,0,27,3.375
1764974448.8598495,0,0,27,3.375
1764974448.863841,0,0,26,3.250
1764974448.8678436,0,0,25,3.125
1764974448.8718476,0,0,26,3.250
1764974448.8758438,0,0,26,3.250
1764974448.879848,0,0,27,3.375
1764974448.8838418,0,0,27,3.375
1764974448.8878427,0,0,26,3.250
1764974448.89185,0,0,26,3.250
1764974448.8958447,0,0,26,3.250
1764974448.8998485,0,0,26,3.250
1764974448.9038455,0,0,27,3.375
1764974448.907844,0,0,25,3.125
1764974448.9118445,0,0,26,3.250
1764974448.915846,0,0,26,3.250
1764974448.919852,0,0,27,3.375
1764974448.9238482,0,0,27,3.375
1764974448.9278464,0,0,25,3.125
1764974448.9319396,0,0,26,3.250
1764974448.9359043,0,0,26,3.250
1764974448.939849,0,0,27,3.375
1764974448.9438326,0,0,27,3.375
1764974448.9478269,0,0,25,3.125
1764974448.9518454,0,0,26,3.250
1764974448.9558418,0,0,26,3.250
1764974448.95984,0,0,27,3.375
1764974448.963829,0,0,27,3.375
1764974448.9678304,0,0,25,3.125
1764974448.971851,0,0,26,3.250
1764974448.9758427,0,0,25,3.125
1764974448.9798567,0,0,27,3.375
1764974448.9838426,0,0,27,3.375
1764974448.9878545,0,0,25,3.125
1764974448.9918578,0,0,25,3.125
1764974448.9958446,0,0,26,3.250
1764974448.9998388,0,0,26,3.250
1764974449.0038397,0,0,27,3.375
1764974449.0078297,0,0,25,3.125
1764974449.011854,0,0,26,3.250
1764974449.015848,0,0,26,3.250
1764974449.0198436,0,0,26,3.250
1764974449.0238295,0,0,27,3.375
1764974449.0278318,0,0,25,3.125
1764974449.0318463,0,0,25,3.125
1764974449.0358922,0,0,25,3.125
1764974449.039848,0,0,26,3.250
1764974449.0438397,0,0,27,3.375
1764974449.047837,0,0,25,3.125
1764974449.0518475,0,0,25,3.125
1764974449.0558453,0,0,26,3.250
1764974449.0598485,0,0,27,3.375
1764974449.0638373,0,0,27,3.375
1764974449.0678368,0,0,25,3.125
1764974449.0718403,0,0,26,3.250
1764974449.0758436,0,0,26,3.250
1764974449.079845,0,0,26,3.250
1764974449.0838392,0,0,27,3.375
1764974449.0878372,0,0,26,3.250
1764974449.0918415,0,0,26,3.250
1764974449.09584,0,0,26,3.250
1764974449.0998425,0,0,27,3.375
1764974449.10384,0,0,27,3.375
1764974449.1078422,0,0,25,3.125
1764974449.1118417,0,0,26,3.250
1764974449.1158392,0,0,26,3.250
1764974449.1198468,0,0,26,3.250
1764974449.1238418,0,0,27,3.375
1764974449.127839,0,0,25,3.125
1764974449.1319203,0,0,25,3.125
1764974449.1358714,0,0,26,3.250
1764974449.139842,0,0,27,3.375
1764974449.1438296,0,0,28,3.500
1764974449.1478264,0,0,25,3.125
1764974449.1518521,0,0,25,3.125
1764974449.1558435,0,0,26,3.250
1764974449.1598392,0,0,26,3.250
1764974449.1638236,0,0,27,3.375
1764974449.167829,0,0,25,3.125
1764974449.1718564,0,0,26,3.250
1764974449.175848,0,0,26,3.250
1764974449.1798446,0,0,26,3.250
1764974449.1838386,0,0,27,3.375
1764974449.1878386,0,0,26,3.250
1764974449.1918433,0,0,25,3.125
1764974449.1958447,0,0,26,3.250
1764974449.1998434,0,0,26,3.250
1764974449.2038379,0,0,27,3.375
1764974449.2078383,0,0,26,3.250
1764974449.2118485,0,0,25,3.125
1764974449.215844,0,0,25,3.125
1764974449.2198477,0,0,26,3.250
1764974449.223845,0,0,27,3.375
1764974449.2278364,0,0,25,3.125
1764974449.2318282,0,0,25,3.125
1764974449.235864,0,0,25,3.125
1764974449.2398403,0,0,26,3.250
1764974449.2438405,0,0,27,3.375
1764974449.247838,0,0,26,3.250
1764974449.2518294,0,0,26,3.250
1764974449.2558267,0,0,26,3.250
1764974449.2598403,0,0,27,3.375
1764974449.2638385,0,0,26,3.250
1764974449.2678375,0,0,25,3.125
1764974449.2718384,0,0,26,3.250
1764974449.2758372,0,0,26,3.250
1764974449.279842,0,0,27,3.375
1764974449.2838383,0,0,25,3.125
1764974449.287837,0,0,25,3.125
1764974449.2918386,0,0,26,3.250
1764974449.295839,0,0,27,3.375
1764974449.2998388,0,0,27,3.375
1764974449.303838,0,0,26,3.250
1764974449.3078344,0,0,26,3.250
1764974449.3118267,0,0,26,3.250
1764974449.3158236,0,0,27,3.375
1764974449.319825,0,0,27,3.375
1764974449.3238213,0,0,26,3.250
1764974449.3278248,0,0,26,3.250
1764974449.3319314,0,0,26,3.250
1764974449.335896,0,0,27,3.375
1764974449.33984,0,0,27,3.375
1764974449.3438246,0,0,26,3.250
1764974449.3478281,0,0,25,3.125
1764974449.3518467,0,0,26,3.250
1764974449.3558414,0,0,26,3.250
1764974449.359836,0,0,27,3.375
1764974449.363823,0,0,26,3.250
1764974449.367822,0,0,25,3.125
1764974449.3718455,0,0,26,3.250
1764974449.3758419,0,0,26,3.250
1764974449.379845,0,0,27,3.375
1764974449.3838348,0,0,26,3.250
1764974449.387847,0,0,25,3.125
1764974449.3918278,0,0,26,3.250
1764974449.3958368,0,0,26,3.250
1764974449.3998525,0,0,27,3.375
1764974449.4038405,0,0,27,3.375
1764974449.4078343,0,0,25,3.125
1764974449.4118383,0,0,26,3.250
1764974449.4158278,0,0,26,3.250
1764974449.4198356,0,0,27,3.375
1764974449.4238377,0,0,26,3.250
1764974449.4278386,0,0,25,3.125
1764974449.4318259,0,0,26,3.250
1764974449.435852,0,0,26,3.250
1764974449.4398453,0,0,27,3.375
1764974449.4438372,0,0,27,3.375
1764974449.447835,0,0,25,3.125
1764974449.4518495,0,0,26,3.250
1764974449.4558346,0,0,26,3.250
1764974449.4598339,0,0,27,3.375
1764974449.463833,0,0,27,3.375
1764974449.467834,0,0,25,3.125
1764974449.4718387,0,0,26,3.250
1764974449.4758346,0,0,26,3.250
1764974449.4798372,0,0,27,3.375
1764974449.483836,0,0,26,3.250
1764974449.4878345,0,0,25,3.125
1764974449.4918382,0,0,25,3.125
1764974449.4958377,0,0,26,3.250
1764974449.4998338,0,0,27,3.375
1764974449.5038314,0,0,27,3.375
1764974449.507833,0,0,25,3.125
1764974449.511837,0,0,26,3.250
1764974449.5158396,0,0,26,3.250
1764974449.5198367,0,0,26,3.250
1764974449.52383,0,0,26,3.250
1764974449.5278316,0,0,25,3.125
1764974449.531929,0,0,25,3.125
1764974449.5358727,0,0,26,3.250
1764974449.5398347,0,0,27,3.375
1764974449.5438237,0,0,27,3.375
1764974449.5478215,0,0,25,3.125
1764974449.5518417,0,0,26,3.250
1764974449.5558372,0,0,26,3.250
1764974449.559834,0,0,27,3.375
1764974449.5638208,0,0,27,3.375
1764974449.567818,0,0,25,3.125
1764974449.5718436,0,0,26,3.250
1764974449.5758424,0,0,26,3.250
1764974449.5798385,0,0,27,3.375
1764974449.5838363,0,0,27,3.375
1764974449.5878356,0,0,25,3.125
1764974449.5918393,0,0,25,3.125
1764974449.5958467,0,0,26,3.250
1764974449.5998373,0,0,27,3.375
1764974449.6038218,0,0,27,3.375
1764974449.6078227,0,0,25,3.125
1764974449.6118448,0,0,25,3.125
1764974449.6158366,0,0,26,3.250
1764974449.6198287,0,0,26,3.250
1764974449.6238227,0,0,27,3.375
1764974449.627835,0,0,25,3.125
1764974449.631842,0,0,26,3.250
1764974449.6358697,0,0,26,3.250
1764974449.6398306,0,0,26,3.250
1764974449.6438208,0,0,28,3.500
1764974449.6478205,0,0,25,3.125
1764974449.6518362,0,0,25,3.125
1764974449.6558344,0,0,26,3.250
1764974449.659836,0,0,27,3.375
1764974449.6638308,0,0,27,3.375
1764974449.6678326,0,0,25,3.125
1764974449.671838,0,0,25,3.125
1764974449.6758535,0,0,26,3.250
1764974449.6798348,0,0,27,3.375
1764974449.6838272,0,0,27,3.375
1764974449.6878288,0,0,25,3.125
1764974449.6918287,0,0,26,3.250
1764974449.6958196,0,0,27,3.375
1764974449.6998322,0,0,27,3.375
1764974449.7038293,0,0,25,3.125
1764974449.707828,0,0,26,3.250
1764974449.7118337,0,0,26,3.250
1764974449.715837,0,0,27,3.375
1764974449.7198324,0,0,27,3.375
1764974449.7238204,0,0,25,3.125
1764974449.7278163,0,0,26,3.250
1764974449.7367868,0,0,27,3.375
1764974449.739875,0,0,27,3.375
1764974449.7438433,0,0,25,3.125
1764974449.74784,0,0,26,3.250
1764974449.7518284,0,0,26,3.250
1764974449.7558196,0,0,26,3.250
1764974449.759836,0,0,27,3.375
1764974449.7638423,0,0,25,3.125
1764974449.7678401,0,0,25,3.125
1764974449.771829,0,0,26,3.250
1764974449.775821,0,0,26,3.250
1764974449.7798371,0,0,27,3.375
1764974449.7838395,0,0,25,3.125
1764974449.7878404,0,0,25,3.125
1764974449.7921824,0,0,25,3.125
1764974449.7960343,0,0,27,3.375
1764974449.799859,0,0,27,3.375
1764974449.803836,0,0,25,3.125
1764974449.8078368,0,0,26,3.250
1764974449.8118472,0,0,26,3.250
1764974449.8158374,0,0,26,3.250
1764974449.819834,0,0,27,3.375
1764974449.8238306,0,0,26,3.250
1764974449.8278344,0,0,26,3.250
1764974449.8318398,0,0,25,3.125
1764974449.8358743,0,0,26,3.250
1764974449.839839,0,0,27,3.375
1764974449.843834,0,0,25,3.125
1764974449.8478346,0,0,25,3.125
1764974449.8518424,0,0,26,3.250
1764974449.8558366,0,0,26,3.250
1764974449.8598413,0,0,27,3.375
1764974449.863833,0,0,25,3.125
1764974449.8678284,0,0,25,3.125
1764974449.8718307,0,0,26,3.250
1764974449.8758316,0,0,26,3.250
1764974449.8798373,0,0,27,3.375
1764974449.8838317,0,0,26,3.250
1764974449.8878293,0,0,26,3.250
1764974449.8918355,0,0,26,3.250
1764974449.895834,0,0,26,3.250
1764974449.8998322,0,0,27,3.375
1764974449.903838,0,0,26,3.250
1764974449.9078362,0,0,26,3.250
1764974449.9118419,0,0,26,3.250
1764974449.9158337,0,0,27,3.375
1764974449.9198375,0,0,27,3.375
1764974449.9238348,0,0,25,3.125
1764974449.9278364,0,0,25,3.125
1764974449.9318345,0,0,26,3.250
1764974449.9359457,0,0,26,3.250
1764974449.939847,0,0,27,3.375
1764974449.943822,0,0,26,3.250
1764974449.947833,0,0,25,3.125
1764974449.9518478,0,0,26,3.250
1764974449.9558346,0,0,26,3.250
1764974449.959831,0,0,27,3.375
1764974449.9638174,0,0,26,3.250
1764974449.9678173,0,0,26,3.250
1764974449.9718459,0,0,26,3.250
1764974449.9758372,0,0,27,3.375
1764974449.9798367,0,0,28,3.500
1764974449.9838321,0,0,26,3.250
1764974449.9878347,0,0,25,3.125
1764974449.9918382,0,0,25,3.125
1764974449.9958367,0,0,26,3.250
1764974449.9998384,0,0,27,3.375
1764974450.0038335,0,0,26,3.250
1764974450.0078335,0,0,25,3.125
1764974450.011834,0,0,25,3.125
1764974450.0158339,0,0,26,3.250
1764974450.0198426,0,0,27,3.375
1764974450.0238326,0,0,26,3.250
1764974450.0278323,0,0,25,3.125
1764974450.031839,0,0,25,3.125
1764974450.035869,0,0,26,3.250
1764974450.0398393,0,0,27,3.375
1764974450.0438378,0,0,26,3.250
1764974450.0478346,0,0,25,3.125
1764974450.0518386,0,0,26,3.250
1764974450.0558374,0,0,26,3.250
1764974450.0598373,0,0,27,3.375
1764974450.063835,0,0,26,3.250
1764974450.0678332,0,0,25,3.125
1764974450.0718255,0,0,25,3.125
1764974450.0758152,0,0,26,3.250
1764974450.0798352,0,0,26,3.250
1764974450.0838373,0,0,26,3.250
1764974450.0878358,0,0,25,3.125
1764974450.091824,0,0,26,3.250
1764974450.0958157,0,0,26,3.250
1764974450.0998352,0,0,27,3.375
1764974450.1038387,0,0,27,3.375
1764974450.1078362,0,0,25,3.125
1764974450.1118295,0,0,25,3.125
1764974450.1158178,0,0,26,3.250
1764974450.1198325,0,0,27,3.375
1764974450.1238322,0,0,27,3.375
1764974450.1278334,0,0,25,3.125
1764974450.131839,0,0,26,3.250
1764974450.1359365,0,0,27,3.375
1764974450.1398418,0,0,27,3.375
1764974450.1438153,0,0,26,3.250
1764974450.1478217,0,0,25,3.125
1764974450.151839,0,0,26,3.250
1764974450.155836,0,0,27,3.375
1764974450.1598287,0,0,26,3.250
1764974450.1638174,0,0,26,3.250
1764974450.1678133,0,0,26,3.250
1764974450.171844,0,0,26,3.250
1764974450.175842,0,0,27,3.375
1764974450.1798406,0,0,26,3.250
1764974450.1838295,0,0,25,3.125
1764974450.1878328,0,0,26,3.250
1764974450.191836,0,0,26,3.250
1764974450.1958325,0,0,27,3.375
1764974450.199838,0,0,27,3.375
1764974450.2038336,0,0,25,3.125
1764974450.2078316,0,0,25,3.125
1764974450.2118373,0,0,26,3.250
1764974450.2158322,0,0,26,3.250
1764974450.2198396,0,0,27,3.375
1764974450.223833,0,0,25,3.125
1764974450.2278297,0,0,26,3.250
1764974450.231835,0,0,26,3.250
1764974450.235831,0,0,26,3.250
1764974450.2398717,0,0,27,3.375
1764974450.2438338,0,0,25,3.125
1764974450.2478309,0,0,26,3.250
1764974450.2518344,0,0,26,3.250
1764974450.2558298,0,0,27,3.375
1764974450.2598386,0,0,27,3.375
1764974450.263834,0,0,25,3.125
1764974450.267833,0,0,26,3.250
1764974450.271836,0,0,26,3.250
1764974450.275831,0,0,27,3.375
1764974450.279834,0,0,27,3.375
1764974450.2838283,0,0,25,3.125
1764974450.2878318,0,0,26,3.250
1764974450.2918346,0,0,27,3.375
1764974450.2958288,0,0,27,3.375
1764974450.2998238,0,0,27,3.375
1764974450.3038132,0,0,25,3.125
1764974450.3078148,0,0,26,3.250
1764974450.311834,0,0,26,3.250
1764974450.3158329,0,0,27,3.375
1764974450.3198369,0,0,27,3.375
1764974450.3238513,0,0,25,3.125
1764974450.3278363,0,0,26,3.250
1764974450.3318346,0,0,26,3.250
1764974450.3359,0,0,27,3.375
1764974450.3398795,0,0,27,3.375
1764974450.3438172,0,0,25,3.125
1764974450.3478155,0,0,26,3.250
1764974450.3518312,0,0,26,3.250
1764974450.3558328,0,0,26,3.250
1764974450.359828,0,0,27,3.375
1764974450.3638134,0,0,25,3.125
1764974450.3678117,0,0,26,3.250
1764974450.3718367,0,0,26,3.250
1764974450.3758337,0,0,26,3.250
1764974450.3798356,0,0,27,3.375
1764974450.38383,0,0,25,3.125
1764974450.3878262,0,0,26,3.250
1764974450.3918211,0,0,26,3.250
1764974450.3958154,0,0,26,3.250
1764974450.3998294,0,0,28,3.500
1764974450.4038286,0,0,25,3.125
1764974450.4078236,0,0,26,3.250
1764974450.4118311,0,0,26,3.250
1764974450.4158254,0,0,27,3.375
1764974450.4198332,0,0,27,3.375
1764974450.42383,0,0,26,3.250
1764974450.427833,0,0,25,3.125
1764974450.4318342,0,0,26,3.250
1764974450.4358268,0,0,26,3.250
1764974450.439844,0,0,28,3.500
1764974450.4438307,0,0,25,3.125
1764974450.447828,0,0,26,3.250
1764974450.451831,0,0,26,3.250
1764974450.4558237,0,0,27,3.375
1764974450.4598298,0,0,27,3.375
1764974450.4638283,0,0,25,3.125
1764974450.46783,0,0,26,3.250
1764974450.4718363,0,0,26,3.250
1764974450.4758282,0,0,26,3.250
1764974450.4798315,0,0,27,3.375
1764974450.4838288,0,0,25,3.125
1764974450.4878263,0,0,26,3.250
1764974450.4918342,0,0,26,3.250
1764974450.4958274,0,0,26,3.250
1764974450.4998314,0,0,27,3.375
1764974450.5038257,0,0,25,3.125
1764974450.5078237,0,0,26,3.250
1764974450.5118318,0,0,26,3.250
1764974450.5158267,0,0,26,3.250
1764974450.5198317,0,0,27,3.375
1764974450.523825,0,0,25,3.125
1764974450.5278246,0,0,25,3.125
1764974450.5318344,0,0,26,3.250
1764974450.5358999,0,0,27,3.375
1764974450.5398698,0,0,28,3.500
1764974450.5438132,0,0,25,3.125
1764974450.5478113,0,0,26,3.250
1764974450.5518336,0,0,26,3.250
1764974450.555826,0,0,27,3.375
1764974450.5598247,0,0,27,3.375
1764974450.5638123,0,0,26,3.250
1764974450.5678093,0,0,25,3.125
1764974450.571833,0,0,26,3.250
1764974450.5758295,0,0,26,3.250
1764974450.5798337,0,0,26,3.250
1764974450.5838313,0,0,25,3.125
1764974450.5878284,0,0,25,3.125
1764974450.5918324,0,0,26,3.250
1764974450.5958252,0,0,28,3.500
1764974450.599831,0,0,26,3.250
1764974450.6038287,0,0,25,3.125
1764974450.6078284,0,0,25,3.125
1764974450.6118298,0,0,27,3.375
1764974450.6158242,0,0,28,3.500
1764974450.6198301,0,0,25,3.125
1764974450.6238286,0,0,26,3.250
1764974450.6278272,0,0,26,3.250
1764974450.6318338,0,0,26,3.250
1764974450.635826,0,0,26,3.250
1764974450.6398315,0,0,26,3.250
1764974450.6438088,0,0,25,3.125
1764974450.6478126,0,0,26,3.250
1764974450.6518302,0,0,27,3.375
1764974450.655827,0,0,27,3.375
1764974450.6598222,0,0,26,3.250
1764974450.6638086,0,0,25,3.125
1764974450.6678126,0,0,26,3.250
1764974450.6718333,0,0,27,3.375
1764974450.675831,0,0,27,3.375
1764974450.679825,0,0,26,3.250
1764974450.6838074,0,0,25,3.125
1764974450.687807,0,0,25,3.125
1764974450.691831,0,0,26,3.250
1764974450.6958308,0,0,27,3.375
1764974450.6998272,0,0,26,3.250
1764974450.7038095,0,0,25,3.125
1764974450.7078078,0,0,25,3.125
1764974450.7118084,0,0,26,3.250
1764974450.7158103,0,0,27,3.375
1764974450.719823,0,0,26,3.250
1764974450.723827,0,0,25,3.125
1764974450.727823,0,0,26,3.250
1764974450.7318316,0,0,26,3.250
1764974450.740822,0,0,26,3.250
1764974450.7438586,0,0,25,3.125
1764974450.7478278,0,0,26,3.250
1764974450.7518158,0,0,26,3.250
1764974450.7558577,0,0,27,3.375
1764974450.7598257,0,0,26,3.250
1764974450.7638125,0,0,25,3.125
1764974450.7678082,0,0,25,3.125
1764974450.771814,0,0,26,3.250
1764974450.7758086,0,0,27,3.375
1764974450.7798274,0,0,27,3.375
1764974450.783829,0,0,25,3.125
1764974450.7878275,0,0,25,3.125
1764974450.7921758,0,0,26,3.250
1764974450.7960374,0,0,27,3.375
1764974450.7998514,0,0,27,3.375
1764974450.8038275,0,0,25,3.125
1764974450.8078277,0,0,26,3.250
1764974450.811832,0,0,26,3.250
1764974450.8158207,0,0,27,3.375
1764974450.8198254,0,0,27,3.375
1764974450.8238213,0,0,25,3.125
1764974450.8278236,0,0,25,3.125
1764974450.831831,0,0,26,3.250
1764974450.835848,0,0,26,3.250
1764974450.8398595,0,0,27,3.375
1764974450.8438091,0,0,25,3.125
1764974450.8478086,0,0,26,3.250
1764974450.8518343,0,0,26,3.250
1764974450.8559227,0,0,27,3.375
1764974450.8600063,0,0,27,3.375
1764974450.863826,0,0,26,3.250
1764974450.8678086,0,0,26,3.250
1764974450.8718324,0,0,27,3.375
1764974450.8758264,0,0,27,3.375
1764974450.879824,0,0,27,3.375
1764974450.8838053,0,0,25,3.125
1764974450.8878043,0,0,26,3.250
1764974450.8918436,0,0,26,3.250
1764974450.895825,0,0,26,3.250
1764974450.8998272,0,0,27,3.375
1764974450.903827,0,0,25,3.125
1764974450.9078257,0,0,26,3.250
1764974450.91183,0,0,26,3.250
1764974450.9158232,0,0,27,3.375
1764974450.9198282,0,0,27,3.375
1764974450.9238245,0,0,25,3.125
1764974450.927825,0,0,26,3.250
1764974450.9318318,0,0,26,3.250
1764974450.935822,0,0,26,3.250
1764974450.939951,0,0,27,3.375
1764974450.943841,0,0,25,3.125
1764974450.9478266,0,0,25,3.125
1764974450.9518185,0,0,26,3.250
1764974450.9558077,0,0,26,3.250
1764974450.9598293,0,0,27,3.375
1764974450.9638274,0,0,25,3.125
1764974450.9678266,0,0,26,3.250
1764974450.9718235,0,0,26,3.250
1764974450.9758065,0,0,26,3.250
1764974450.979824,0,0,26,3.250
1764974450.9838219,0,0,25,3.125
1764974450.9878228,0,0,25,3.125
1764974450.9918282,0,0,26,3.250
1764974450.9958224,0,0,26,3.250
1764974450.9998264,0,0,27,3.375
1764974451.003823,0,0,25,3.125
1764974451.0078244,0,0,26,3.250
1764974451.0118573,0,0,26,3.250
1764974451.0158389,0,0,26,3.250
1764974451.0198224,0,0,28,3.500
1764974451.023806,0,0,25,3.125
1764974451.0278046,0,0,26,3.250
1764974451.03183,0,0,27,3.375
1764974451.035825,0,0,27,3.375
1764974451.039849,0,0,25,3.125
1764974451.0438075,0,0,26,3.250
1764974451.0478063,0,0,25,3.125
1764974451.0518277,0,0,26,3.250
1764974451.055826,0,0,27,3.375
1764974451.0598314,0,0,25,3.125
1764974451.063825,0,0,26,3.250
1764974451.067824,0,0,26,3.250
1764974451.0718303,0,0,27,3.375
1764974451.0758257,0,0,27,3.375
1764974451.0798268,0,0,25,3.125
1764974451.0838253,0,0,26,3.250
1764974451.0878258,0,0,26,3.250
1764974451.0918312,0,0,27,3.375
1764974451.0958235,0,0,27,3.375
1764974451.099828,0,0,25,3.125
1764974451.103827,0,0,26,3.250
1764974451.1078248,0,0,25,3.125
1764974451.1118262,0,0,27,3.375
1764974451.1158195,0,0,27,3.375
1764974451.1198225,0,0,25,3.125
1764974451.1238236,0,0,26,3.250
1764974451.1278207,0,0,26,3.250
1764974451.1318321,0,0,26,3.250
1764974451.135825,0,0,27,3.375
1764974451.1399093,0,0,25,3.125
1764974451.143824,0,0,26,3.250
1764974451.1478102,0,0,26,3.250
1764974451.1518195,0,0,26,3.250
1764974451.1558063,0,0,27,3.375
1764974451.15982,0,0,26,3.250
1764974451.163822,0,0,25,3.125
1764974451.1678264,0,0,25,3.125
1764974451.17182,0,0,27,3.375
1764974451.1758287,0,0,27,3.375
1764974451.1798244,0,0,25,3.125
1764974451.1838212,0,0,25,3.125
1764974451.1878223,0,0,26,3.250
1764974451.1918263,0,0,26,3.250
1764974451.1958218,0,0,27,3.375
1764974451.1998408,0,0,25,3.125
1764974451.2038286,0,0,25,3.125
1764974451.2078235,0,0,25,3.125
1764974451.2118158,0,0,26,3.250
1764974451.2158062,0,0,28,3.500
1764974451.2198222,0,0,26,3.250
1764974451.2238214,0,0,25,3.125
1764974451.2278178,0,0,26,3.250
1764974451.2318134,0,0,26,3.250
1764974451.235805,0,0,27,3.375
1764974451.239867,0,0,26,3.250
1764974451.2438247,0,0,26,3.250
1764974451.2478194,0,0,26,3.250
1764974451.2518277,0,0,26,3.250
1764974451.2558262,0,0,28,3.500
1764974451.2598307,0,0,25,3.125
1764974451.2638242,0,0,26,3.250
1764974451.2678227,0,0,26,3.250
1764974451.2718272,0,0,27,3.375
1764974451.2758205,0,0,28,3.500
1764974451.2798176,0,0,25,3.125
1764974451.28382,0,0,25,3.125
1764974451.2878213,0,0,26,3.250
1764974451.2918236,0,0,26,3.250
1764974451.2958195,0,0,27,3.375
1764974451.2998228,0,0,25,3.125
1764974451.303821,0,0,25,3.125
1764974451.3078215,0,0,26,3.250
1764974451.3118274,0,0,26,3.250
1764974451.315816,0,0,27,3.375
1764974451.3198304,0,0,26,3.250
1764974451.3238215,0,0,25,3.125
1764974451.327821,0,0,26,3.250
1764974451.3318243,0,0,26,3.250
1764974451.3358252,0,0,27,3.375
1764974451.3399143,0,0,26,3.250
1764974451.3438327,0,0,26,3.250
1764974451.3478212,0,0,26,3.250
1764974451.351814,0,0,26,3.250
1764974451.3558047,0,0,27,3.375
1764974451.3598185,0,0,26,3.250
1764974451.363817,0,0,25,3.125
1764974451.3678203,0,0,25,3.125
1764974451.3718176,0,0,26,3.250
1764974451.3758035,0,0,27,3.375
1764974451.3798208,0,0,26,3.250
1764974451.3838313,0,0,25,3.125
1764974451.3878183,0,0,26,3.250
1764974451.3918111,0,0,26,3.250
1764974451.3958044,0,0,27,3.375
1764974451.3998146,0,0,26,3.250
1764974451.4038131,0,0,25,3.125
1764974451.4078019,0,0,26,3.250
1764974451.4118035,0,0,26,3.250
1764974451.415801,0,0,26,3.250
1764974451.4198174,0,0,26,3.250
1764974451.42382,0,0,25,3.125
1764974451.4278166,0,0,25,3.125
1764974451.4318047,0,0,26,3.250
1764974451.435801,0,0,26,3.250
1764974451.4398642,0,0,27,3.375
1764974451.4438224,0,0,25,3.125
1764974451.4478188,0,0,26,3.250
1764974451.4518254,0,0,26,3.250
1764974451.4558167,0,0,27,3.375
1764974451.4598227,0,0,27,3.375
1764974451.4638202,0,0,25,3.125
1764974451.4678204,0,0,25,3.125
1764974451.4718187,0,0,26,3.250
1764974451.4758139,0,0,27,3.375
1764974451.4798203,0,0,26,3.250
1764974451.4838176,0,0,25,3.125
1764974451.4878156,0,0,26,3.250
1764974451.4918253,0,0,26,3.250
1764974451.4958146,0,0,26,3.250
1764974451.4998195,0,0,25,3.125
1764974451.503818,0,0,26,3.250
1764974451.5078194,0,0,26,3.250
1764974451.5118198,0,0,27,3.375
1764974451.5158165,0,0,27,3.375
1764974451.519823,0,0,25,3.125
1764974451.5238163,0,0,26,3.250
1764974451.5278175,0,0,26,3.250
1764974451.531822,0,0,27,3.375
1764974451.5358198,0,0,27,3.375
1764974451.539933,0,0,25,3.125
1764974451.5438294,0,0,25,3.125
1764974451.547817,0,0,26,3.250
1764974451.55181,0,0,27,3.375
1764974451.5558007,0,0,27,3.375
1764974451.55982,0,0,25,3.125
1764974451.5638177,0,0,26,3.250
1764974451.5678167,0,0,26,3.250
1764974451.5718133,0,0,27,3.375
1764974451.575803,0,0,27,3.375
1764974451.5798218,0,0,25,3.125
1764974451.5838192,0,0,26,3.250
1764974451.587814,0,0,26,3.250
1764974451.5918138,0,0,27,3.375
1764974451.5958142,0,0,27,3.375
1764974451.5998187,0,0,25,3.125
1764974451.6038215,0,0,25,3.125
1764974451.6078157,0,0,26,3.250
1764974451.611811,0,0,27,3.375
1764974451.6157975,0,0,28,3.500
1764974451.6198175,0,0,25,3.125
1764974451.6238194,0,0,26,3.250
1764974451.627813,0,0,26,3.250
1764974451.6318045,0,0,27,3.375
1764974451.6357968,0,0,27,3.375
1764974451.6398418,0,0,25,3.125
1764974451.6438038,0,0,25,3.125
1764974451.6477997,0,0,26,3.250
1764974451.6518185,0,0,27,3.375
1764974451.6558154,0,0,28,3.500
1764974451.6598134,0,0,25,3.125
1764974451.6638167,0,0,26,3.250
1764974451.6678147,0,0,26,3.250
1764974451.6718185,0,0,26,3.250
1764974451.6758177,0,0,27,3.375
1764974451.6798203,0,0,25,3.125
1764974451.6838152,0,0,25,3.125
1764974451.6878161,0,0,26,3.250
1764974451.6918242,0,0,27,3.375
1764974451.6958141,0,0,27,3.375
1764974451.6998186,0,0,25,3.125
1764974451.7038121,0,0,26,3.250
1764974451.7078116,0,0,26,3.250
1764974451.7118175,0,0,26,3.250
1764974451.7158132,0,0,27,3.375
1764974451.7198176,0,0,25,3.125
1764974451.723813,0,0,26,3.250
1764974451.7278123,0,0,26,3.250
1764974451.7318165,0,0,26,3.250
1764974451.7357996,0,0,27,3.375
1764974451.7447953,0,0,27,3.375
1764974451.7478328,0,0,25,3.125
1764974451.751816,0,0,26,3.250
1764974451.7558007,0,0,27,3.375
1764974451.7598186,0,0,25,3.125
1764974451.763812,0,0,26,3.250
1764974451.7678142,0,0,25,3.125
1764974451.7718098,0,0,26,3.250
1764974451.7757998,0,0,28,3.500
1764974451.7798164,0,0,25,3.125
1764974451.7838159,0,0,25,3.125
1764974451.7878108,0,0,27,3.375
1764974451.7921746,0,0,26,3.250
1764974451.7960124,0,0,27,3.375
1764974451.7998435,0,0,25,3.125
1764974451.8038225,0,0,26,3.250
1764974451.8078177,0,0,26,3.250
1764974451.8118203,0,0,27,3.375
1764974451.8158126,0,0,27,3.375
1764974451.8198175,0,0,25,3.125
1764974451.8238149,0,0,25,3.125
1764974451.827812,0,0,26,3.250
1764974451.8318117,0,0,26,3.250
1764974451.8358076,0,0,27,3.375
1764974451.8398585,0,0,26,3.250
1764974451.8438137,0,0,25,3.125
1764974451.8478103,0,0,26,3.250
1764974451.8518171,0,0,27,3.375
1764974451.8558052,0,0,27,3.375
1764974451.8597968,0,0,25,3.125
1764974451.8637989,0,0,26,3.250
1764974451.867796,0,0,26,3.250
1764974451.871824,0,0,27,3.375
1764974451.8758128,0,0,27,3.375
1764974451.8798091,0,0,25,3.125
1764974451.883793,0,0,25,3.125
1764974451.887798,0,0,26,3.250
1764974451.8918104,0,0,27,3.375
1764974451.8957977,0,0,27,3.375
1764974451.8998067,0,0,25,3.125
1764974451.90381,0,0,25,3.125
1764974451.9078097,0,0,25,3.125
1764974451.9118116,0,0,26,3.250
1764974451.9158113,0,0,27,3.375
1764974451.9198198,0,0,26,3.250
1764974451.9238098,0,0,25,3.125
1764974451.927809,0,0,26,3.250
1764974451.9318187,0,0,26,3.250
1764974451.9358172,0,0,27,3.375
1764974451.939851,0,0,26,3.250
1764974451.9438915,0,0,26,3.250
1764974451.947822,0,0,26,3.250
1764974451.9518044,0,0,26,3.250
1764974451.9557962,0,0,27,3.375
1764974451.959813,0,0,26,3.250
1764974451.9638112,0,0,26,3.250
1764974451.967811,0,0,26,3.250
1764974451.9718044,0,0,27,3.375
1764974451.9757915,0,0,26,3.250
1764974451.9798172,0,0,25,3.125
1764974451.9838145,0,0,25,3.125
1764974451.9878137,0,0,26,3.250
1764974451.9918141,0,0,27,3.375
1764974451.99581,0,0,26,3.250
1764974451.9998188,0,0,26,3.250
1764974452.0038126,0,0,26,3.250
1764974452.007814,0,0,26,3.250
1764974452.011817,0,0,26,3.250
1764974452.0158105,0,0,26,3.250
1764974452.0198166,0,0,25,3.125
1764974452.0238223,0,0,26,3.250
1764974452.0278115,0,0,26,3.250
1764974452.0318022,0,0,27,3.375
1764974452.0357928,0,0,26,3.250
1764974452.0398538,0,0,25,3.125
1764974452.0438147,0,0,26,3.250
1764974452.0478127,0,0,26,3.250
1764974452.0518093,0,0,27,3.375
1764974452.055797,0,0,26,3.250
1764974452.0598116,0,0,25,3.125
1764974452.0638106,0,0,26,3.250
1764974452.0678105,0,0,26,3.250
1764974452.0718133,0,0,27,3.375
1764974452.0758111,0,0,26,3.250
1764974452.0798116,0,0,25,3.125
1764974452.0838075,0,0,26,3.250
1764974452.087811,0,0,26,3.250
1764974452.0918186,0,0,27,3.375
1764974452.0958118,0,0,26,3.250
1764974452.0998127,0,0,25,3.125
1764974452.103807,0,0,26,3.250
1764974452.107805,0,0,26,3.250
1764974452.1118088,0,0,27,3.375
1764974452.115811,0,0,27,3.375
1764974452.1198077,0,0,25,3.125
1764974452.1237903,0,0,26,3.250
1764974452.1277888,0,0,26,3.250
1764974452.1318119,0,0,26,3.250
1764974452.135811,0,0,26,3.250
1764974452.139771,0,0,25,3.125
1764974452.1438785,0,0,26,3.250
1764974452.147816,0,0,26,3.250
1764974452.1518106,0,0,27,3.375
1764974452.1558068,0,0,26,3.250
1764974452.1598098,0,0,25,3.125
1764974452.1638095,0,0,26,3.250
1764974452.1678078,0,0,26,3.250
1764974452.171811,0,0,27,3.375
1764974452.175805,0,0,27,3.375
1764974452.1798131,0,0,25,3.125
1764974452.1838095,0,0,26,3.250
1764974452.1878095,0,0,26,3.250
1764974452.191812,0,0,27,3.375
1764974452.19581,0,0,27,3.375
1764974452.1998124,0,0,25,3.125
1764974452.2038116,0,0,26,3.250
1764974452.20782,0,0,26,3.250
1764974452.211808,0,0,27,3.375
1764974452.215792,0,0,27,3.375
1764974452.2198083,0,0,25,3.125
1764974452.2238114,0,0,26,3.250
1764974452.2278101,0,0,26,3.250
1764974452.231806,0,0,26,3.250
1764974452.2357905,0,0,27,3.375
1764974452.2398436,0,0,25,3.125
1764974452.2438068,0,0,26,3.250
1764974452.2478101,0,0,26,3.250
1764974452.2518158,0,0,27,3.375
1764974452.2558088,0,0,27,3.375
1764974452.259811,0,0,25,3.125
1764974452.2638068,0,0,26,3.250
1764974452.267809,0,0,26,3.250
1764974452.2718108,0,0,26,3.250
1764974452.2758074,0,0,27,3.375
1764974452.2798085,0,0,25,3.125
1764974452.283804,0,0,26,3.250
1764974452.2878058,0,0,26,3.250
1764974452.2918146,0,0,27,3.375
1764974452.2958064,0,0,27,3.375
1764974452.2998111,0,0,25,3.125
1764974452.303807,0,0,26,3.250
1764974452.307804,0,0,26,3.250
1764974452.311805,0,0,27,3.375
1764974452.3158052,0,0,27,3.375
1764974452.319811,0,0,25,3.125
1764974452.323805,0,0,26,3.250
1764974452.3278005,0,0,26,3.250
1764974452.3318088,0,0,27,3.375
1764974452.3358064,0,0,27,3.375
1764974452.3398263,0,0,25,3.125
1764974452.3438818,0,0,25,3.125
1764974452.3478239,0,0,26,3.250
1764974452.351811,0,0,26,3.250
1764974452.355804,0,0,27,3.375
1764974452.3598096,0,0,25,3.125
1764974452.363807,0,0,26,3.250
1764974452.3678067,0,0,26,3.250
1764974452.3718,0,0,27,3.375
1764974452.3757882,0,0,28,3.500
1764974452.3798075,0,0,25,3.125
1764974452.3838086,0,0,25,3.125
1764974452.3878052,0,0,26,3.250
1764974452.3918009,0,0,26,3.250
1764974452.3957868,0,0,27,3.375
1764974452.399805,0,0,25,3.125
1764974452.4038076,0,0,26,3.250
1764974452.4078262,0,0,26,3.250
1764974452.411814,0,0,27,3.375
1764974452.415793,0,0,27,3.375
1764974452.4198065,0,0,25,3.125
1764974452.4238071,0,0,26,3.250
1764974452.4278061,0,0,26,3.250
1764974452.4318018,0,0,26,3.250
1764974452.435793,0,0,27,3.375
1764974452.439837,0,0,25,3.125
1764974452.443787,0,0,26,3.250
1764974452.4477904,0,0,27,3.375
1764974452.4518101,0,0,27,3.375
1764974452.455806,0,0,26,3.250
1764974452.4598086,0,0,25,3.125
1764974452.4638026,0,0,26,3.250
1764974452.4678032,0,0,27,3.375
1764974452.4718087,0,0,27,3.375
1764974452.4758046,0,0,26,3.250
1764974452.4798095,0,0,25,3.125
1764974452.483802,0,0,26,3.250
1764974452.487801,0,0,27,3.375
1764974452.4918115,0,0,27,3.375
1764974452.495806,0,0,25,3.125
1764974452.49981,0,0,26,3.250
1764974452.5038047,0,0,26,3.250
1764974452.5078042,0,0,26,3.250
1764974452.5118062,0,0,27,3.375
1764974452.5158036,0,0,25,3.125
1764974452.5198092,0,0,25,3.125
1764974452.5238037,0,0,26,3.250
1764974452.5278003,0,0,26,3.250
1764974452.5318065,0,0,27,3.375
1764974452.5358026,0,0,26,3.250
1764974452.5398471,0,0,25,3.125
1764974452.543874,0,0,25,3.125
1764974452.5478327,0,0,26,3.250
1764974452.5518057,0,0,27,3.375
1764974452.5557888,0,0,26,3.250
1764974452.5598056,0,0,25,3.125
1764974452.56382,0,0,26,3.250
1764974452.567806,0,0,26,3.250
1764974452.5718021,0,0,27,3.375
1764974452.5757856,0,0,26,3.250
1764974452.5798047,0,0,25,3.125
1764974452.5838053,0,0,26,3.250
1764974452.5878036,0,0,26,3.250
1764974452.5918097,0,0,27,3.375
1764974452.5958028,0,0,26,3.250
1764974452.599803,0,0,25,3.125
1764974452.6038032,0,0,26,3.250
1764974452.6078067,0,0,26,3.250
1764974452.611813,0,0,27,3.375
1764974452.6158094,0,0,26,3.250
1764974452.6198142,0,0,26,3.250
1764974452.6238058,0,0,26,3.250
1764974452.627805,0,0,26,3.250
1764974452.6318011,0,0,27,3.375
1764974452.635789,0,0,25,3.125
1764974452.6398273,0,0,25,3.125
1764974452.6437864,0,0,26,3.250
1764974452.6477852,0,0,26,3.250
1764974452.6517901,0,0,27,3.375
1764974452.6557875,0,0,26,3.250
1764974452.6598065,0,0,25,3.125
1764974452.6638024,0,0,26,3.250
1764974452.6677995,0,0,26,3.250
1764974452.6718075,0,0,27,3.375
1764974452.675804,0,0,26,3.250
1764974452.6798036,0,0,25,3.125
1764974452.6838005,0,0,25,3.125
1764974452.6877975,0,0,26,3.250
1764974452.6918066,0,0,27,3.375
1764974452.6958044,0,0,26,3.250
1764974452.6998084,0,0,25,3.125
1764974452.7038026,0,0,26,3.250
1764974452.707798,0,0,26,3.250
1764974452.7118056,0,0,27,3.375
1764974452.7158048,0,0,26,3.250
1764974452.7198062,0,0,25,3.125
1764974452.7238014,0,0,26,3.250
1764974452.7278025,0,0,26,3.250
1764974452.7318096,0,0,27,3.375
1764974452.7357976,0,0,27,3.375
1764974452.7398415,0,0,25,3.125
1764974452.748734,0,0,27,3.375
1764974452.7518167,0,0,27,3.375
1764974452.755785,0,0,26,3.250
1764974452.7597876,0,0,25,3.125
1764974452.763785,0,0,26,3.250
1764974452.7677872,0,0,27,3.375
1764974452.7718096,0,0,27,3.375
1764974452.7758,0,0,26,3.250
1764974452.7797952,0,0,25,3.125
1764974452.783786,0,0,26,3.250
1764974452.7877884,0,0,26,3.250
1764974452.7921667,0,0,27,3.375
1764974452.7960062,0,0,26,3.250
1764974452.7998245,0,0,25,3.125
1764974452.8038015,0,0,26,3.250
1764974452.8078039,0,0,26,3.250
1764974452.811804,0,0,26,3.250
1764974452.8157976,0,0,27,3.375
1764974452.8198876,0,0,25,3.125
1764974452.8238006,0,0,26,3.250
1764974452.8278008,0,0,26,3.250
1764974452.831803,0,0,26,3.250
1764974452.8358016,0,0,27,3.375
1764974452.8398452,0,0,25,3.125
1764974452.8438013,0,0,26,3.250
1764974452.847797,0,0,27,3.375
1764974452.8517997,0,0,26,3.250
1764974452.8558123,0,0,27,3.375
1764974452.8598063,0,0,25,3.125
1764974452.8637972,0,0,26,3.250
1764974452.8677967,0,0,26,3.250
1764974452.8717985,0,0,26,3.250
1764974452.8758004,0,0,27,3.375
1764974452.8798006,0,0,25,3.125
1764974452.883799,0,0,26,3.250
1764974452.8877943,0,0,26,3.250
1764974452.8918037,0,0,26,3.250
1764974452.8957994,0,0,27,3.375
1764974452.8998141,0,0,25,3.125
1764974452.9038026,0,0,26,3.250
1764974452.9078014,0,0,26,3.250
1764974452.9118047,0,0,27,3.375
1764974452.9157991,0,0,27,3.375
1764974452.9197977,0,0,25,3.125
1764974452.9237864,0,0,26,3.250
1764974452.9277854,0,0,26,3.250
1764974452.9318063,0,0,27,3.375
1764974452.935799,0,0,25,3.125
1764974452.9398427,0,0,25,3.125
1764974452.943802,0,0,26,3.250
1764974452.9478805,0,0,27,3.375
1764974452.9518151,0,0,27,3.375
1764974452.9557967,0,0,25,3.125
1764974452.959805,0,0,26,3.250
1764974452.963803,0,0,26,3.250
1764974452.9678004,0,0,27,3.375
1764974452.9718013,0,0,27,3.375
1764974452.9757829,0,0,25,3.125
1764974452.9798028,0,0,25,3.125
1764974452.9838018,0,0,26,3.250
1764974452.9878025,0,0,27,3.375
1764974452.9918077,0,0,27,3.375
1764974452.9958014,0,0,25,3.125
1764974452.9998035,0,0,25,3.125
1764974453.003802,0,0,26,3.250
1764974453.0078075,0,0,26,3.250
1764974453.0117989,0,0,27,3.375
1764974453.0157986,0,0,25,3.125
1764974453.019801,0,0,25,3.125
1764974453.0238001,0,0,27,3.375
1764974453.027799,0,0,26,3.250
1764974453.0317929,0,0,27,3.375
1764974453.0357869,0,0,25,3.125
1764974453.039842,0,0,25,3.125
1764974453.0438006,0,0,26,3.250
1764974453.0477986,0,0,26,3.250
1764974453.0518072,0,0,27,3.375
1764974453.0558012,0,0,25,3.125
1764974453.0598054,0,0,26,3.250
1764974453.0637975,0,0,26,3.250
1764974453.067798,0,0,26,3.250
1764974453.071803,0,0,27,3.375
1764974453.0758007,0,0,26,3.250
1764974453.0798047,0,0,26,3.250
1764974453.0837998,0,0,26,3.250
1764974453.0877962,0,0,26,3.250
1764974453.091805,0,0,27,3.375
1764974453.0957954,0,0,25,3.125
1764974453.0998018,0,0,26,3.250
1764974453.1038,0,0,26,3.250
1764974453.1077986,0,0,26,3.250
1764974453.111801,0,0,27,3.375
1764974453.1157959,0,0,25,3.125
1764974453.1198018,0,0,25,3.125
1764974453.1237986,0,0,26,3.250
1764974453.1277976,0,0,27,3.375
1764974453.1318066,0,0,27,3.375
1764974453.1357977,0,0,25,3.125
1764974453.1398275,0,0,26,3.250
1764974453.143786,0,0,26,3.250
1764974453.1478782,0,0,27,3.375
1764974453.1518142,0,0,28,3.500
1764974453.1557956,0,0,25,3.125
1764974453.1597986,0,0,25,3.125
1764974453.1637995,0,0,26,3.250
1764974453.1677983,0,0,27,3.375
1764974453.171797,0,0,27,3.375
1764974453.1757936,0,0,25,3.125
1764974453.1798139,0,0,25,3.125
1764974453.183799,0,0,26,3.250
1764974453.1878004,0,0,26,3.250
1764974453.1917994,0,0,27,3.375
1764974453.1958027,0,0,25,3.125
1764974453.1998017,0,0,25,3.125
1764974453.2037992,0,0,26,3.250
1764974453.2077982,0,0,26,3.250
1764974453.2118096,0,0,27,3.375
1764974453.2158034,0,0,26,3.250
1764974453.2198057,0,0,25,3.125
1764974453.2237837,0,0,25,3.125
1764974453.227783,0,0,26,3.250
1764974453.2318025,0,0,28,3.500
1764974453.2358031,0,0,25,3.125
1764974453.2398336,0,0,25,3.125
1764974453.2437818,0,0,25,3.125
1764974453.2477791,0,0,26,3.250
1764974453.2518137,0,0,27,3.375
1764974453.2557979,0,0,26,3.250
1764974453.2597961,0,0,26,3.250
1764974453.2637937,0,0,26,3.250
1764974453.2677946,0,0,27,3.375
1764974453.2717988,0,0,27,3.375
1764974453.2757964,0,0,26,3.250
1764974453.2798007,0,0,25,3.125
1764974453.2837968,0,0,26,3.250
1764974453.287792,0,0,26,3.250
1764974453.2918031,0,0,27,3.375
1764974453.2957938,0,0,26,3.250
1764974453.2997968,0,0,25,3.125
1764974453.3037984,0,0,26,3.250
1764974453.3077986,0,0,26,3.250
1764974453.3117983,0,0,27,3.375
1764974453.3157914,0,0,26,3.250
1764974453.3197987,0,0,25,3.125
1764974453.3237965,0,0,25,3.125
1764974453.3277931,0,0,26,3.250
1764974453.331798,0,0,27,3.375
1764974453.3357928,0,0,26,3.250
1764974453.3398077,0,0,25,3.125
1764974453.3437927,0,0,26,3.250
1764974453.3478668,0,0,26,3.250
1764974453.351807,0,0,27,3.375
1764974453.3557796,0,0,26,3.250
1764974453.3597934,0,0,25,3.125
1764974453.3637953,0,0,26,3.250
1764974453.367796,0,0,27,3.375
1764974453.371803,0,0,26,3.250
1764974453.3757942,0,0,26,3.250
1764974453.3797996,0,0,25,3.125
1764974453.3837984,0,0,26,3.250
1764974453.3877993,0,0,27,3.375
1764974453.39179,0,0,27,3.375
1764974453.3957813,0,0,27,3.375
1764974453.3997931,0,0,25,3.125
1764974453.4038002,0,0,26,3.250
1764974453.4078012,0,0,27,3.375
1764974453.4117959,0,0,26,3.250
1764974453.415782,0,0,25,3.125
1764974453.4197965,0,0,26,3.250
1764974453.4237916,0,0,27,3.375
1764974453.4277914,0,0,27,3.375
1764974453.4317899,0,0,27,3.375
1764974453.4357808,0,0,25,3.125
1764974453.439842,0,0,26,3.250
1764974453.4437964,0,0,26,3.250
1764974453.4477918,0,0,27,3.375
1764974453.4518027,0,0,26,3.250
1764974453.4557955,0,0,25,3.125
1764974453.4597955,0,0,26,3.250
1764974453.4637947,0,0,26,3.250
1764974453.4677944,0,0,27,3.375
1764974453.4717975,0,0,27,3.375
1764974453.4757924,0,0,25,3.125
1764974453.4797893,0,0,26,3.250
1764974453.4837785,0,0,26,3.250
1764974453.4877737,0,0,28,3.500
1764974453.491793,0,0,27,3.375
1764974453.4957895,0,0,25,3.125
1764974453.4997938,0,0,26,3.250
1764974453.5037923,0,0,26,3.250
1764974453.5077906,0,0,27,3.375
1764974453.5117934,0,0,27,3.375
1764974453.51579,0,0,25,3.125
1764974453.5197937,0,0,26,3.250
1764974453.5237942,0,0,26,3.250
1764974453.5277927,0,0,27,3.375
1764974453.531799,0,0,27,3.375
1764974453.535791,0,0,25,3.125
1764974453.539767,0,0,26,3.250
1764974453.5437934,0,0,26,3.250
1764974453.5478582,0,0,27,3.375
1764974453.551806,0,0,27,3.375
1764974453.5557897,0,0,25,3.125
1764974453.5597916,0,0,26,3.250
1764974453.5637925,0,0,26,3.250
1764974453.567792,0,0,26,3.250
1764974453.5717876,0,0,27,3.375
1764974453.575776,0,0,25,3.125
1764974453.5797908,0,0,26,3.250
1764974453.583792,0,0,26,3.250
1764974453.587792,0,0,27,3.375
1764974453.591799,0,0,27,3.375
1764974453.595795,0,0,25,3.125
1764974453.599797,0,0,26,3.250
1764974453.6037903,0,0,26,3.250
1764974453.6077914,0,0,27,3.375
1764974453.6117997,0,0,27,3.375
1764974453.6157973,0,0,25,3.125
1764974453.6197999,0,0,26,3.250
1764974453.62379,0,0,26,3.250
1764974453.627793,0,0,27,3.375
1764974453.631799,0,0,27,3.375
1764974453.6357925,0,0,25,3.125
1764974453.6398058,0,0,25,3.125
1764974453.6437962,0,0,26,3.250
1764974453.6477873,0,0,27,3.375
1764974453.6517825,0,0,28,3.500
1764974453.6557763,0,0,25,3.125
1764974453.6597934,0,0,25,3.125
1764974453.6637912,0,0,26,3.250
1764974453.6677892,0,0,27,3.375
1764974453.671781,0,0,27,3.375
1764974453.6757782,0,0,25,3.125
1764974453.6798005,0,0,26,3.250
1764974453.683794,0,0,26,3.250
1764974453.6877923,0,0,27,3.375
1764974453.691793,0,0,27,3.375
1764974453.69579,0,0,25,3.125
1764974453.6997962,0,0,26,3.250
1764974453.7037923,0,0,26,3.250
1764974453.707791,0,0,27,3.375
1764974453.711793,0,0,27,3.375
1764974453.7157888,0,0,25,3.125
1764974453.719792,0,0,26,3.250
1764974453.723791,0,0,26,3.250
1764974453.7277896,0,0,26,3.250
1764974453.7317939,0,0,27,3.375
1764974453.735787,0,0,25,3.125
1764974453.739829,0,0,26,3.250
1764974453.7437882,0,0,26,3.250
1764974453.7527761,0,0,28,3.500
1764974453.7558131,0,0,25,3.125
1764974453.759792,0,0,25,3.125
1764974453.763776,0,0,26,3.250
1764974453.7677734,0,0,26,3.250
1764974453.7717965,0,0,27,3.375
1764974453.7757766,0,0,25,3.125
1764974453.7797754,0,0,25,3.125
1764974453.7837737,0,0,26,3.250
1764974453.7877748,0,0,26,3.250
1764974453.7921574,0,0,27,3.375
1764974453.7959938,0,0,25,3.125
1764974453.7998145,0,0,25,3.125
1764974453.8037882,0,0,25,3.125
1764974453.807788,0,0,26,3.250
1764974453.8117945,0,0,27,3.375
1764974453.81579,0,0,25,3.125
1764974453.8197982,0,0,26,3.250
1764974453.8237913,0,0,26,3.250
1764974453.827788,0,0,27,3.375
1764974453.831788,0,0,27,3.375
1764974453.8357897,0,0,26,3.250
1764974453.8398333,0,0,25,3.125
1764974453.843792,0,0,26,3.250
1764974453.847788,0,0,26,3.250
1764974453.851782,0,0,27,3.375
1764974453.8557959,0,0,25,3.125
1764974453.8597975,0,0,25,3.125
1764974453.8637898,0,0,25,3.125
1764974453.8677886,0,0,27,3.375
1764974453.8717904,0,0,27,3.375
1764974453.875784,0,0,25,3.125
1764974453.8797896,0,0,26,3.250
1764974453.8837895,0,0,26,3.250
1764974453.887787,0,0,26,3.250
1764974453.8917902,0,0,27,3.375
1764974453.8957877,0,0,25,3.125
1764974453.8997908,0,0,25,3.125
1764974453.9037874,0,0,26,3.250
1764974453.907786,0,0,27,3.375
1764974453.9117868,0,0,26,3.250
1764974453.9157891,0,0,25,3.125
1764974453.9197934,0,0,25,3.125
1764974453.9237907,0,0,26,3.250
1764974453.927791,0,0,27,3.375
1764974453.9317951,0,0,26,3.250
1764974453.93579,0,0,25,3.125
1764974453.9398286,0,0,26,3.250
1764974453.943792,0,0,26,3.250
1764974453.9477904,0,0,27,3.375
1764974453.9518728,0,0,26,3.250
1764974453.9558005,0,0,26,3.250
1764974453.9597845,0,0,26,3.250
1764974453.9637713,0,0,26,3.250
1764974453.9677703,0,0,27,3.375
1764974453.9717975,0,0,26,3.250
1764974453.975789,0,0,25,3.125
1764974453.9797823,0,0,26,3.250
1764974453.9837704,0,0,26,3.250
1764974453.9877687,0,0,28,3.500
1764974453.9917912,0,0,26,3.250
1764974453.995787,0,0,25,3.125
1764974453.9997885,0,0,25,3.125
1764974454.0037782,0,0,26,3.250
1764974454.0077817,0,0,27,3.375
1764974454.0117948,0,0,26,3.250
1764974454.0157897,0,0,26,3.250
1764974454.019786,0,0,25,3.125
1764974454.0237718,0,0,26,3.250
1764974454.0277672,0,0,27,3.375
1764974454.0317886,0,0,26,3.250
1764974454.0357869,0,0,25,3.125
1764974454.0398185,0,0,26,3.250
1764974454.0437744,0,0,26,3.250
1764974454.047769,0,0,27,3.375
1764974454.0518155,0,0,27,3.375
1764974454.055805,0,0,25,3.125
1764974454.0597866,0,0,26,3.250
1764974454.0637736,0,0,26,3.250
1764974454.0677676,0,0,27,3.375
1764974454.071785,0,0,26,3.250
1764974454.075781,0,0,25,3.125
1764974454.0797803,0,0,25,3.125
1764974454.0837696,0,0,26,3.250
1764974454.0877683,0,0,27,3.375
1764974454.091786,0,0,26,3.250
1764974454.0957818,0,0,25,3.125
1764974454.099787,0,0,26,3.250
1764974454.1037803,0,0,27,3.375
1764974454.1077783,0,0,27,3.375
1764974454.1117814,0,0,27,3.375
1764974454.1157823,0,0,25,3.125
1764974454.1197836,0,0,25,3.125
1764974454.1237803,0,0,26,3.250
1764974454.1277795,0,0,27,3.375
1764974454.131784,0,0,26,3.250
1764974454.1357799,0,0,25,3.125
1764974454.139793,0,0,26,3.250
1764974454.143767,0,0,26,3.250
1764974454.147769,0,0,27,3.375
1764974454.1518614,0,0,27,3.375
1764974454.1557972,0,0,25,3.125
1764974454.159779,0,0,25,3.125
1764974454.1637678,0,0,26,3.250
1764974454.1677647,0,0,27,3.375
1764974454.1717837,0,0,26,3.250
1764974454.1757877,0,0,25,3.125
1764974454.1797822,0,0,26,3.250
1764974454.1837645,0,0,26,3.250
1764974454.187764,0,0,27,3.375
1764974454.1917918,0,0,27,3.375
1764974454.1957839,0,0,25,3.125
1764974454.199786,0,0,26,3.250
1764974454.2037811,0,0,26,3.250
1764974454.2077954,0,0,26,3.250
1764974454.2117977,0,0,27,3.375
1764974454.2157886,0,0,25,3.125
1764974454.2197828,0,0,26,3.250
1764974454.223768,0,0,26,3.250
1764974454.2277672,0,0,26,3.250
1764974454.2317848,0,0,27,3.375
1764974454.2357843,0,0,25,3.125
1764974454.2398195,0,0,26,3.250
1764974454.24377,0,0,26,3.250
1764974454.247766,0,0,26,3.250
1764974454.2517824,0,0,27,3.375
1764974454.2557833,0,0,25,3.125
1764974454.2597845,0,0,26,3.250
1764974454.2637775,0,0,26,3.250
1764974454.2677753,0,0,27,3.375
1764974454.271782,0,0,27,3.375
1764974454.2757795,0,0,24,3.000
1764974454.2797835,0,0,25,3.125
1764974454.283777,0,0,26,3.250
1764974454.2877762,0,0,27,3.375
1764974454.29178,0,0,27,3.375
1764974454.2957776,0,0,25,3.125
1764974454.2997844,0,0,26,3.250
1764974454.3037791,0,0,27,3.375
1764974454.3077776,0,0,26,3.250
1764974454.3117797,0,0,27,3.375
1764974454.3157804,0,0,25,3.125
1764974454.3197796,0,0,26,3.250
1764974454.323775,0,0,26,3.250
1764974454.3277752,0,0,26,3.250
1764974454.3317816,0,0,26,3.250
1764974454.3357773,0,0,25,3.125
1764974454.339793,0,0,26,3.250
1764974454.3437767,0,0,26,3.250
1764974454.3477778,0,0,26,3.250
1764974454.3518531,0,0,27,3.375
1764974454.3557947,0,0,25,3.125
1764974454.3597765,0,0,26,3.250
1764974454.3637648,0,0,26,3.250
1764974454.367761,0,0,26,3.250
1764974454.3717837,0,0,27,3.375
1764974454.3757796,0,0,25,3.125
1764974454.3797765,0,0,26,3.250
1764974454.383765,0,0,26,3.250
1764974454.3877614,0,0,27,3.375
1764974454.3917744,0,0,27,3.375
1764974454.3957675,0,0,25,3.125
1764974454.3997805,0,0,26,3.250
1764974454.4037764,0,0,27,3.375
1764974454.4077754,0,0,27,3.375
1764974454.4117699,0,0,25,3.125
1764974454.4157734,0,0,26,3.250
1764974454.4197953,0,0,25,3.125
1764974454.4237754,0,0,26,3.250
1764974454.4277754,0,0,27,3.375
1764974454.4317677,0,0,25,3.125
1764974454.435766,0,0,26,3.250
1764974454.4398167,0,0,26,3.250
1764974454.443778,0,0,26,3.250
1764974454.4477732,0,0,27,3.375
1764974454.4517632,0,0,25,3.125
1764974454.4557643,0,0,26,3.250
1764974454.4597793,0,0,26,3.250
1764974454.4637768,0,0,27,3.375
1764974454.4677722,0,0,27,3.375
1764974454.4717755,0,0,25,3.125
1764974454.4757776,0,0,26,3.250
1764974454.479781,0,0,26,3.250
1764974454.4837763,0,0,26,3.250
1764974454.4877744,0,0,27,3.375
1764974454.4917784,0,0,25,3.125
1764974454.4957755,0,0,25,3.125
1764974454.4997785,0,0,26,3.250
1764974454.5037725,0,0,26,3.250
1764974454.5077739,0,0,27,3.375
1764974454.5117755,0,0,26,3.250
1764974454.5157738,0,0,26,3.250
1764974454.5197716,0,0,26,3.250
1764974454.5237637,0,0,26,3.250
1764974454.5277627,0,0,28,3.500
1764974454.531778,0,0,26,3.250
1764974454.535775,0,0,26,3.250
1764974454.5397947,0,0,26,3.250
1764974454.5437734,0,0,26,3.250
1764974454.5477738,0,0,27,3.375
1764974454.5518537,0,0,25,3.125
1764974454.5557926,0,0,26,3.250
1764974454.559776,0,0,26,3.250
1764974454.5637643,0,0,26,3.250
1764974454.567765,0,0,27,3.375
1764974454.5717802,0,0,25,3.125
1764974454.5757785,0,0,26,3.250
1764974454.5797741,0,0,26,3.250
1764974454.583762,0,0,26,3.250
1764974454.5877597,0,0,27,3.375
1764974454.5917883,0,0,26,3.250
1764974454.5957801,0,0,25,3.125
1764974454.5997803,0,0,26,3.250
1764974454.6037736,0,0,26,3.250
1764974454.6077726,0,0,27,3.375
1764974454.6117811,0,0,26,3.250
1764974454.6158059,0,0,25,3.125
1764974454.619779,0,0,26,3.250
1764974454.6237614,0,0,26,3.250
1764974454.6277611,0,0,27,3.375
1764974454.631779,0,0,26,3.250
1764974454.635777,0,0,25,3.125
1764974454.6398137,0,0,26,3.250
1764974454.6437619,0,0,27,3.375
1764974454.6477573,0,0,27,3.375
1764974454.6517794,0,0,26,3.250
1764974454.6557767,0,0,25,3.125
1764974454.6597812,0,0,26,3.250
1764974454.6637743,0,0,26,3.250
1764974454.66777,0,0,27,3.375
1764974454.6717753,0,0,26,3.250
1764974454.6757748,0,0,25,3.125
1764974454.679782,0,0,26,3.250
1764974454.6837723,0,0,27,3.375
1764974454.6877701,0,0,26,3.250
1764974454.6917744,0,0,26,3.250
1764974454.6957734,0,0,25,3.125
1764974454.6997774,0,0,26,3.250
1764974454.7037714,0,0,27,3.375
1764974454.7077727,0,0,27,3.375
1764974454.7117743,0,0,26,3.250
1764974454.7157712,0,0,26,3.250
1764974454.7197697,0,0,26,3.250
1764974454.7237713,0,0,27,3.375
1764974454.7277696,0,0,27,3.375
1764974454.7317712,0,0,27,3.375
1764974454.7357721,0,0,25,3.125
1764974454.739794,0,0,25,3.125
1764974454.7437716,0,0,26,3.250
1764974454.7477708,0,0,27,3.375
1764974454.7568119,0,0,26,3.250
1764974454.7598007,0,0,26,3.250
1764974454.7637634,0,0,26,3.250
1764974454.7677624,0,0,27,3.375
1764974454.7717793,0,0,26,3.250
1764974454.7757628,0,0,25,3.125
1764974454.779778,0,0,26,3.250
1764974454.7837763,0,0,26,3.250
1764974454.787778,0,0,27,3.375
1764974454.7921243,0,0,27,3.375
1764974454.7959723,0,0,25,3.125
1764974454.7998168,0,0,26,3.250
1764974454.8037817,0,0,26,3.250
1764974454.8077748,0,0,26,3.250
1764974454.8117816,0,0,26,3.250
1764974454.8157742,0,0,25,3.125
1764974454.8197818,0,0,25,3.125
1764974454.8237724,0,0,26,3.250
1764974454.827773,0,0,27,3.375
1764974454.831783,0,0,26,3.250
1764974454.835839,0,0,25,3.125
1764974454.8398275,0,0,26,3.250
1764974454.8437843,0,0,26,3.250
1764974454.8477783,0,0,27,3.375
1764974454.8517702,0,0,27,3.375
1764974454.8557634,0,0,25,3.125
1764974454.8597882,0,0,26,3.250
1764974454.8637812,0,0,26,3.250
1764974454.8677745,0,0,27,3.375
1764974454.8717773,0,0,27,3.375
1764974454.8757746,0,0,25,3.125
1764974454.8797822,0,0,26,3.250
1764974454.8837776,0,0,26,3.250
1764974454.8877776,0,0,26,3.250
1764974454.8917682,0,0,26,3.250
1764974454.895759,0,0,25,3.125
1764974454.8997743,0,0,26,3.250
1764974454.9037774,0,0,26,3.250
1764974454.9077768,0,0,27,3.375
1764974454.9117818,0,0,25,3.125
1764974454.9157732,0,0,25,3.125
1764974454.9197676,0,0,26,3.250
1764974454.923762,0,0,26,3.250
1764974454.927762,0,0,27,3.375
1764974454.9317803,0,0,25,3.125
1764974454.935775,0,0,26,3.250
1764974454.9398198,0,0,26,3.250
1764974454.943779,0,0,27,3.375
1764974454.9477777,0,0,27,3.375
1764974454.9517846,0,0,25,3.125
1764974454.9558516,0,0,25,3.125
1764974454.9597824,0,0,26,3.250
1764974454.9637604,0,0,26,3.250
1764974454.9677615,0,0,27,3.375
1764974454.9717846,0,0,25,3.125
1764974454.9757793,0,0,25,3.125
1764974454.9797702,0,0,26,3.250
1764974454.9837558,0,0,27,3.375
1764974454.98776,0,0,27,3.375
1764974454.9917831,0,0,25,3.125
1764974454.9957788,0,0,26,3.250
1764974454.99977,0,0,26,3.250
1764974455.003757,0,0,26,3.250
1764974455.0077553,0,0,27,3.375
1764974455.0117846,0,0,25,3.125
1764974455.0157993,0,0,25,3.125
1764974455.0197868,0,0,26,3.250
1764974455.023762,0,0,27,3.375
1764974455.0277598,0,0,27,3.375
1764974455.0317814,0,0,25,3.125
1764974455.035781,0,0,25,3.125
1764974455.03981,0,0,25,3.125
1764974455.043762,0,0,26,3.250
1764974455.047758,0,0,27,3.375
1764974455.0517797,0,0,25,3.125
1764974455.0557764,0,0,25,3.125
1764974455.0597816,0,0,26,3.250
1764974455.0637763,0,0,27,3.375
1764974455.0677724,0,0,27,3.375
1764974455.0717816,0,0,25,3.125
1764974455.0757759,0,0,26,3.250
1764974455.0797768,0,0,26,3.250
1764974455.0837755,0,0,26,3.250
1764974455.0877726,0,0,28,3.500
1764974455.0917804,0,0,25,3.125
1764974455.0957708,0,0,25,3.125
1764974455.099774,0,0,26,3.250
1764974455.1037726,0,0,27,3.375
1764974455.1077762,0,0,27,3.375
1764974455.1117785,0,0,25,3.125
1764974455.1157713,0,0,26,3.250
1764974455.1197724,0,0,26,3.250
1764974455.1237762,0,0,26,3.250
1764974455.1277733,0,0,27,3.375
1764974455.1317809,0,0,26,3.250
1764974455.1357727,0,0,26,3.250
1764974455.1397817,0,0,26,3.250
1764974455.143758,0,0,26,3.250
1764974455.1477582,0,0,28,3.500
1764974455.1517797,0,0,25,3.125
1764974455.1558459,0,0,26,3.250
1764974455.1597862,0,0,26,3.250
1764974455.1637547,0,0,26,3.250
1764974455.1677573,0,0,27,3.375
1764974455.17178,0,0,26,3.250
1764974455.175776,0,0,25,3.125
1764974455.1797733,0,0,26,3.250
1764974455.183756,0,0,26,3.250
1764974455.1877577,0,0,27,3.375
1764974455.1917913,0,0,25,3.125
1764974455.195776,0,0,26,3.250
1764974455.199778,0,0,26,3.250
1764974455.2037728,0,0,26,3.250
1764974455.2077844,0,0,28,3.500
1764974455.2117841,0,0,25,3.125
1764974455.2157855,0,0,26,3.250
1764974455.2197728,0,0,26,3.250
1764974455.2237542,0,0,27,3.375
1764974455.227756,0,0,27,3.375
1764974455.2317798,0,0,25,3.125
1764974455.2357771,0,0,25,3.125
1764974455.239814,0,0,26,3.250
1764974455.2437563,0,0,26,3.250
1764974455.2477558,0,0,27,3.375
1764974455.2517762,0,0,26,3.250
1764974455.2557783,0,0,26,3.250
1764974455.2597756,0,0,26,3.250
1764974455.2637837,0,0,27,3.375
1764974455.2677717,0,0,27,3.375
1764974455.2717805,0,0,26,3.250
1764974455.2757742,0,0,25,3.125
1764974455.2797856,0,0,26,3.250
1764974455.2837744,0,0,26,3.250
1764974455.2877722,0,0,27,3.375
1764974455.2917726,0,0,26,3.250
1764974455.295781,0,0,25,3.125
1764974455.2997735,0,0,25,3.125
1764974455.3037753,0,0,26,3.250
1764974455.3077695,0,0,27,3.375
1764974455.3117883,0,0,26,3.250
1764974455.31577,0,0,25,3.125
1764974455.3197827,0,0,26,3.250
1764974455.323774,0,0,26,3.250
1764974455.3277748,0,0,27,3.375
1764974455.3317747,0,0,26,3.250
1764974455.335765,0,0,25,3.125
1764974455.3397875,0,0,25,3.125
1764974455.3437734,0,0,26,3.250
1764974455.3477716,0,0,28,3.500
1764974455.3517785,0,0,26,3.250
1764974455.355845,0,0,25,3.125
1764974455.3597784,0,0,26,3.250
1764974455.3637552,0,0,26,3.250
1764974455.3677564,0,0,27,3.375
1764974455.3717763,0,0,26,3.250
1764974455.3757756,0,0,25,3.125
1764974455.3797665,0,0,26,3.250
1764974455.3837514,0,0,26,3.250
1764974455.387756,0,0,27,3.375
1764974455.3917613,0,0,26,3.250
1764974455.3957567,0,0,25,3.125
1764974455.399769,0,0,26,3.250
1764974455.4037728,0,0,27,3.375
1764974455.4077692,0,0,27,3.375
1764974455.411778,0,0,26,3.250
1764974455.4157708,0,0,25,3.125
1764974455.4197717,0,0,26,3.250
1764974455.4237676,0,0,27,3.375
1764974455.4277678,0,0,27,3.375
1764974455.4317658,0,0,25,3.125
1764974455.435754,0,0,26,3.250
1764974455.439811,0,0,26,3.250
1764974455.4437718,0,0,27,3.375
1764974455.4477742,0,0,27,3.375
1764974455.45178,0,0,25,3.125
1764974455.4557734,0,0,25,3.125
1764974455.4597692,0,0,26,3.250
1764974455.4637578,0,0,26,3.250
1764974455.4677548,0,0,27,3.375
1764974455.4717715,0,0,25,3.125
1764974455.4757733,0,0,26,3.250
1764974455.479769,0,0,26,3.250
1764974455.483755,0,0,27,3.375
1764974455.4877517,0,0,27,3.375
1764974455.491769,0,0,25,3.125
1764974455.495765,0,0,26,3.250
1764974455.4997735,0,0,27,3.375
1764974455.5037708,0,0,27,3.375
1764974455.5077696,0,0,26,3.250
1764974455.5117733,0,0,25,3.125
1764974455.5157654,0,0,25,3.125
1764974455.51977,0,0,26,3.250
1764974455.523768,0,0,26,3.250
1764974455.5277655,0,0,27,3.375
1764974455.5317755,0,0,25,3.125
1764974455.5357656,0,0,25,3.125
1764974455.5397844,0,0,26,3.250
1764974455.5437675,0,0,27,3.375
1764974455.5477684,0,0,27,3.375
1764974455.551775,0,0,25,3.125
1764974455.5558364,0,0,26,3.250
1764974455.5597723,0,0,26,3.250
1764974455.5637558,0,0,26,3.250
1764974455.5677555,0,0,27,3.375
1764974455.571775,0,0,25,3.125
1764974455.5757706,0,0,26,3.250
1764974455.579765,0,0,26,3.250
1764974455.583748,0,0,26,3.250
1764974455.5877545,0,0,27,3.375
1764974455.5917766,0,0,25,3.125
1764974455.5957701,0,0,26,3.250
1764974455.5997717,0,0,26,3.250
1764974455.6037672,0,0,27,3.375
1764974455.6077685,0,0,26,3.250
1764974455.6117775,0,0,25,3.125
1764974455.615772,0,0,26,3.250
1764974455.6197684,0,0,26,3.250
1764974455.6237504,0,0,26,3.250
1764974455.6277478,0,0,27,3.375
1764974455.631775,0,0,25,3.125
1764974455.6357708,0,0,26,3.250
1764974455.6397998,0,0,26,3.250
1764974455.6437492,0,0,26,3.250
1764974455.6477478,0,0,27,3.375
1764974455.6517725,0,0,25,3.125
1764974455.655769,0,0,26,3.250
1764974455.659773,0,0,26,3.250
1764974455.6637716,0,0,27,3.375
1764974455.6677673,0,0,28,3.500
1764974455.6717765,0,0,25,3.125
1764974455.6757667,0,0,26,3.250
1764974455.6797762,0,0,26,3.250
1764974455.6837687,0,0,26,3.250
1764974455.687766,0,0,27,3.375
1764974455.6917665,0,0,25,3.125
1764974455.6957648,0,0,25,3.125
1764974455.6997712,0,0,26,3.250
1764974455.703766,0,0,26,3.250
1764974455.7077658,0,0,27,3.375
1764974455.711772,0,0,25,3.125
1764974455.7157643,0,0,26,3.250
1764974455.7197702,0,0,26,3.250
1764974455.7237656,0,0,26,3.250
1764974455.7277665,0,0,28,3.500
1764974455.7317698,0,0,25,3.125
1764974455.7357624,0,0,26,3.250
1764974455.7398038,0,0,26,3.250
1764974455.7437704,0,0,26,3.250
1764974455.7477658,0,0,27,3.375
1764974455.7517858,0,0,25,3.125
1764974455.7607315,0,0,26,3.250
1764974455.7637935,0,0,26,3.250
1764974455.7677703,0,0,27,3.375
1764974455.7717679,0,0,25,3.125
1764974455.7757516,0,0,25,3.125
1764974455.7797673,0,0,25,3.125
1764974455.783765,0,0,26,3.250
1764974455.787767,0,0,27,3.375
1764974455.7921045,0,0,25,3.125
1764974455.795972,0,0,26,3.250
1764974455.7997994,0,0,26,3.250
1764974455.803766,0,0,26,3.250
1764974455.8077676,0,0,28,3.500
1764974455.8117626,0,0,25,3.125
1764974455.8157506,0,0,25,3.125
1764974455.819769,0,0,26,3.250
1764974455.823769,0,0,26,3.250
1764974455.8277636,0,0,27,3.375
1764974455.83177,0,0,26,3.250
1764974455.8357654,0,0,25,3.125
1764974455.8398132,0,0,25,3.125
1764974455.8437638,0,0,26,3.250
1764974455.847765,0,0,27,3.375
1764974455.8517702,0,0,26,3.250
1764974455.8557656,0,0,26,3.250
1764974455.8597713,0,0,25,3.125
1764974455.8637648,0,0,26,3.250
1764974455.8677645,0,0,27,3.375
1764974455.871773,0,0,25,3.125
1764974455.8757663,0,0,25,3.125
1764974455.8797696,0,0,25,3.125
1764974455.8837664,0,0,27,3.375
1764974455.887762,0,0,27,3.375
1764974455.8917572,0,0,26,3.250
1764974455.8957512,0,0,25,3.125
1764974455.8997676,0,0,26,3.250
1764974455.903764,0,0,26,3.250
1764974455.9077632,0,0,28,3.500
1764974455.9117715,0,0,26,3.250
1764974455.9157622,0,0,25,3.125
1764974455.9197652,0,0,26,3.250
1764974455.9237654,0,0,27,3.375
1764974455.927766,0,0,27,3.375
1764974455.9317663,0,0,26,3.250
1764974455.9357586,0,0,26,3.250
1764974455.9397855,0,0,27,3.375
1764974455.9437494,0,0,27,3.375
1764974455.9477468,0,0,26,3.250
1764974455.9517658,0,0,26,3.250
1764974455.9557612,0,0,26,3.250
1764974455.9598305,0,0,26,3.250
1764974455.9637635,0,0,27,3.375
1764974455.967749,0,0,26,3.250
1764974455.97178,0,0,25,3.125
1764974455.9757636,0,0,26,3.250
1764974455.9797645,0,0,26,3.250
1764974455.9837692,0,0,27,3.375
1764974455.9877663,0,0,26,3.250
1764974455.991763,0,0,25,3.125
1764974455.9957461,0,0,26,3.250
1764974455.9997635,0,0,26,3.250
1764974456.0037618,0,0,27,3.375
1764974456.0077622,0,0,26,3.250
1764974456.011765,0,0,25,3.125
1764974456.0157623,0,0,26,3.250
1764974456.0197666,0,0,26,3.250
1764974456.023762,0,0,27,3.375
1764974456.02776,0,0,26,3.250
1764974456.0317686,0,0,25,3.125
1764974456.0357635,0,0,25,3.125
1764974456.0398226,0,0,26,3.250
1764974456.0437458,0,0,26,3.250
1764974456.0477457,0,0,26,3.250
1764974456.051758,0,0,25,3.125
1764974456.0557477,0,0,26,3.250
1764974456.0597634,0,0,26,3.250
1764974456.0637634,0,0,27,3.375
1764974456.0677612,0,0,26,3.250
1764974456.0717542,0,0,25,3.125
1764974456.075747,0,0,26,3.250
1764974456.079769,0,0,26,3.250
1764974456.083766,0,0,27,3.375
1764974456.0877635,0,0,26,3.250
1764974456.0917685,0,0,25,3.125
1764974456.0957775,0,0,26,3.250
1764974456.0997694,0,0,26,3.250
1764974456.1037667,0,0,27,3.375
1764974456.1077611,0,0,26,3.250
1764974456.1117816,0,0,25,3.125
1764974456.1157632,0,0,25,3.125
1764974456.1197693,0,0,26,3.250
1764974456.1237643,0,0,27,3.375
1764974456.127775,0,0,26,3.250
1764974456.1317675,0,0,25,3.125
1764974456.1357613,0,0,25,3.125
1764974456.1397748,0,0,25,3.125
1764974456.1437604,0,0,27,3.375
1764974456.1477447,0,0,26,3.250
1764974456.151766,0,0,25,3.125
1764974456.1557593,0,0,26,3.250
1764974456.159834,0,0,26,3.250
1764974456.1637747,0,0,27,3.375
1764974456.167763,0,0,26,3.250
1764974456.1717632,0,0,25,3.125
1764974456.175751,0,0,26,3.250
1764974456.1797688,0,0,26,3.250
1764974456.1837642,0,0,27,3.375
1764974456.1877642,0,0,27,3.375
1764974456.1917593,0,0,25,3.125
1764974456.1957433,0,0,26,3.250
1764974456.1997616,0,0,26,3.250
1764974456.2037592,0,0,26,3.250
1764974456.2077744,0,0,27,3.375
1764974456.2117689,0,0,25,3.125
1764974456.2157764,0,0,26,3.250
1764974456.2197623,0,0,26,3.250
1764974456.2237449,0,0,27,3.375
1764974456.2277465,0,0,27,3.375
1764974456.2317784,0,0,25,3.125
1764974456.2357633,0,0,26,3.250
1764974456.2397928,0,0,26,3.250
1764974456.2437437,0,0,27,3.375
1764974456.247754,0,0,27,3.375
1764974456.251766,0,0,25,3.125
1764974456.2557654,0,0,26,3.250
1764974456.2597673,0,0,26,3.250
1764974456.2637584,0,0,27,3.375
1764974456.2677577,0,0,27,3.375
1764974456.2717695,0,0,25,3.125
1764974456.2757611,0,0,25,3.125
1764974456.2797613,0,0,26,3.250
1764974456.2837555,0,0,26,3.250
1764974456.28776,0,0,27,3.375
1764974456.2917633,0,0,25,3.125
1764974456.2957582,0,0,26,3.250
1764974456.2997653,0,0,26,3.250
1764974456.3037617,0,0,26,3.250
1764974456.307757,0,0,27,3.375
1764974456.3117988,0,0,25,3.125
1764974456.315767,0,0,26,3.250
1764974456.3197556,0,0,26,3.250
1764974456.323744,0,0,27,3.375
1764974456.3277407,0,0,27,3.375
1764974456.3317618,0,0,25,3.125
1764974456.3357604,0,0,25,3.125
1764974456.3397746,0,0,26,3.250
1764974456.343748,0,0,26,3.250
1764974456.3477445,0,0,27,3.375
1764974456.3517606,0,0,25,3.125
1764974456.3557582,0,0,26,3.250
1764974456.3598316,0,0,26,3.250
1764974456.363774,0,0,27,3.375
1764974456.3677595,0,0,27,3.375
1764974456.3717542,0,0,25,3.125
1764974456.375743,0,0,26,3.250
1764974456.3797557,0,0,26,3.250
1764974456.383759,0,0,26,3.250
1764974456.3877585,0,0,28,3.500
1764974456.3917563,0,0,25,3.125
1764974456.3957431,0,0,26,3.250
1764974456.399761,0,0,26,3.250
1764974456.4037604,0,0,26,3.250
1764974456.4077575,0,0,27,3.375
1764974456.411759,0,0,25,3.125
1764974456.4157557,0,0,26,3.250
1764974456.4197884,0,0,26,3.250
1764974456.423761,0,0,26,3.250
1764974456.4277601,0,0,27,3.375
1764974456.4317532,0,0,25,3.125
1764974456.4357424,0,0,26,3.250
1764974456.4397962,0,0,26,3.250
1764974456.4437585,0,0,27,3.375
1764974456.4477599,0,0,28,3.500
1764974456.4517546,0,0,26,3.250
1764974456.4557464,0,0,26,3.250
1764974456.459761,0,0,26,3.250
1764974456.4637566,0,0,28,3.500
1764974456.4677541,0,0,25,3.125
1764974456.47177,0,0,26,3.250
1764974456.475758,0,0,26,3.250
1764974456.4797585,0,0,26,3.250
1764974456.4837537,0,0,27,3.375
1764974456.4877553,0,0,26,3.250
1764974456.4917622,0,0,25,3.125
1764974456.4957569,0,0,26,3.250
1764974456.4997616,0,0,27,3.375
1764974456.503757,0,0,27,3.375
1764974456.5077524,0,0,25,3.125
1764974456.5117607,0,0,26,3.250
1764974456.515757,0,0,26,3.250
1764974456.5197597,0,0,27,3.375
1764974456.5237558,0,0,27,3.375
1764974456.5277524,0,0,25,3.125
1764974456.5317585,0,0,26,3.250
1764974456.535755,0,0,26,3.250
1764974456.5397758,0,0,26,3.250
1764974456.5437524,0,0,27,3.375
1764974456.5477521,0,0,26,3.250
1764974456.5517612,0,0,25,3.125
1764974456.5557525,0,0,25,3.125
1764974456.5598278,0,0,26,3.250
1764974456.5637698,0,0,27,3.375
1764974456.5677586,0,0,26,3.250
1764974456.57175,0,0,25,3.125
1764974456.5757396,0,0,25,3.125
1764974456.5797539,0,0,27,3.375
1764974456.5837612,0,0,27,3.375
1764974456.587757,0,0,26,3.250
1764974456.5917535,0,0,26,3.250
1764974456.5957391,0,0,26,3.250
1764974456.599745,0,0,26,3.250
1764974456.6037414,0,0,27,3.375
1764974456.6077416,0,0,26,3.250
1764974456.61176,0,0,25,3.125
1764974456.6157558,0,0,26,3.250
1764974456.6197586,0,0,26,3.250
1764974456.6237555,0,0,27,3.375
1764974456.627757,0,0,26,3.250
1764974456.6317637,0,0,25,3.125
1764974456.6357787,0,0,26,3.250
1764974456.639791,0,0,26,3.250
1764974456.6437373,0,0,27,3.375
1764974456.6477396,0,0,26,3.250
1764974456.6517575,0,0,25,3.125
1764974456.6557581,0,0,26,3.250
1764974456.6597483,0,0,26,3.250
1764974456.6637368,0,0,27,3.375
1764974456.667737,0,0,26,3.250
1764974456.6717644,0,0,25,3.125
1764974456.675756,0,0,25,3.125
1764974456.6797569,0,0,26,3.250
1764974456.6837535,0,0,27,3.375
1764974456.6877549,0,0,26,3.250
1764974456.691759,0,0,25,3.125
1764974456.6957548,0,0,26,3.250
1764974456.69976,0,0,26,3.250
1764974456.7037554,0,0,27,3.375
1764974456.7077525,0,0,26,3.250
1764974456.711761,0,0,25,3.125
1764974456.7157543,0,0,26,3.250
1764974456.719762,0,0,27,3.375
1764974456.7237513,0,0,27,3.375
1764974456.727749,0,0,26,3.250
1764974456.7317545,0,0,25,3.125
1764974456.735753,0,0,26,3.250
1764974456.7397938,0,0,26,3.250
1764974456.7437508,0,0,27,3.375
1764974456.7477508,0,0,26,3.250
1764974456.7517576,0,0,25,3.125
1764974456.7557545,0,0,26,3.250
1764974456.7647493,0,0,28,3.500
1764974456.7678242,0,0,27,3.375
1764974456.771756,0,0,25,3.125
1764974456.775738,0,0,25,3.125
1764974456.7797487,0,0,26,3.250
1764974456.783756,0,0,27,3.375
1764974456.7877543,0,0,27,3.375
1764974456.7920933,0,0,25,3.125
1764974456.7959683,0,0,26,3.250
1764974456.79979,0,0,26,3.250
1764974456.8037581,0,0,27,3.375
1764974456.8077552,0,0,27,3.375
1764974456.8117561,0,0,24,3.000
1764974456.8157506,0,0,26,3.250
1764974456.8197782,0,0,26,3.250
1764974456.8237603,0,0,27,3.375
1764974456.827754,0,0,26,3.250
1764974456.831751,0,0,25,3.125
1764974456.835738,0,0,26,3.250
1764974456.8397896,0,0,27,3.375
1764974456.8437529,0,0,27,3.375
1764974456.8477564,0,0,27,3.375
1764974456.8518693,0,0,25,3.125
1764974456.8559651,0,0,26,3.250
1764974456.8597908,0,0,25,3.125
1764974456.8637533,0,0,26,3.250
1764974456.8677511,0,0,27,3.375
1764974456.8717575,0,0,25,3.125
1764974456.8757524,0,0,26,3.250
1764974456.8797524,0,0,27,3.375
1764974456.883749,0,0,26,3.250
1764974456.8877473,0,0,27,3.375
1764974456.8917687,0,0,25,3.125
1764974456.8957512,0,0,26,3.250
1764974456.8997517,0,0,26,3.250
1764974456.9037476,0,0,26,3.250
1764974456.907745,0,0,27,3.375
1764974456.911753,0,0,25,3.125
1764974456.9157495,0,0,25,3.125
1764974456.9197514,0,0,26,3.250
1764974456.9237504,0,0,26,3.250
1764974456.92775,0,0,27,3.375
1764974456.9317567,0,0,25,3.125
1764974456.935755,0,0,25,3.125
1764974456.939799,0,0,26,3.250
1764974456.9437516,0,0,26,3.250
1764974456.9477487,0,0,27,3.375
1764974456.9517553,0,0,25,3.125
1764974456.9557526,0,0,26,3.250
1764974456.9597476,0,0,26,3.250
1764974456.9638295,0,0,27,3.375
1764974456.9677608,0,0,28,3.500
1764974456.971754,0,0,25,3.125
1764974456.9757464,0,0,26,3.250
1764974456.9797606,0,0,26,3.250
1764974456.9837568,0,0,27,3.375
1764974456.9877517,0,0,27,3.375
1764974456.9917407,0,0,26,3.250
1764974456.995732,0,0,26,3.250
1764974456.9997525,0,0,27,3.375
1764974457.003753,0,0,27,3.375
1764974457.0077522,0,0,25,3.125
1764974457.0117533,0,0,25,3.125
1764974457.0157485,0,0,25,3.125
1764974457.0197582,0,0,27,3.375
1764974457.0237622,0,0,27,3.375
1764974457.027752,0,0,25,3.125
1764974457.0317585,0,0,26,3.250
1764974457.0357492,0,0,26,3.250
1764974457.0397887,0,0,27,3.375
1764974457.0437546,0,0,27,3.375
1764974457.0477533,0,0,25,3.125
1764974457.0517542,0,0,26,3.250
1764974457.055747,0,0,26,3.250
1764974457.0597541,0,0,26,3.250
1764974457.0637524,0,0,27,3.375
1764974457.0677524,0,0,25,3.125
1764974457.0717545,0,0,25,3.125
1764974457.0757527,0,0,26,3.250
1764974457.0797462,0,0,27,3.375
1764974457.0837338,0,0,27,3.375
1764974457.087734,0,0,25,3.125
1764974457.0917575,0,0,26,3.250
1764974457.0957506,0,0,26,3.250
1764974457.0997517,0,0,27,3.375
1764974457.1037474,0,0,27,3.375
1764974457.1077478,0,0,24,3.000
1764974457.1117535,0,0,25,3.125
1764974457.115751,0,0,26,3.250
1764974457.1197546,0,0,26,3.250
1764974457.1237488,0,0,28,3.500
1764974457.1277468,0,0,25,3.125
1764974457.1317563,0,0,25,3.125
1764974457.135751,0,0,26,3.250
1764974457.1397789,0,0,26,3.250
1764974457.1437314,0,0,27,3.375
1764974457.1477304,0,0,26,3.250
1764974457.151753,0,0,26,3.250
1764974457.1557505,0,0,26,3.250
1764974457.1597512,0,0,26,3.250
1764974457.1638281,0,0,27,3.375
1764974457.1677642,0,0,25,3.125
1764974457.1717484,0,0,25,3.125
1764974457.1757343,0,0,26,3.250
1764974457.1797583,0,0,26,3.250
1764974457.1837566,0,0,27,3.375
1764974457.1877482,0,0,25,3.125
1764974457.191748,0,0,25,3.125
1764974457.1957314,0,0,26,3.250
1764974457.1997538,0,0,26,3.250
1764974457.203753,0,0,27,3.375
1764974457.2077522,0,0,26,3.250
1764974457.2117524,0,0,25,3.125
1764974457.2157478,0,0,26,3.250
1764974457.2197554,0,0,26,3.250
1764974457.2237551,0,0,27,3.375
1764974457.2277572,0,0,26,3.250
1764974457.23176,0,0,25,3.125
1764974457.235749,0,0,26,3.250
1764974457.239781,0,0,27,3.375
1764974457.2437325,0,0,27,3.375
1764974457.247735,0,0,26,3.250
1764974457.2517533,0,0,26,3.250
1764974457.2557466,0,0,25,3.125
1764974457.2597435,0,0,27,3.375
1764974457.2637331,0,0,28,3.500
1764974457.2677321,0,0,26,3.250
1764974457.2717566,0,0,25,3.125
1764974457.2757459,0,0,26,3.250
1764974457.279751,0,0,26,3.250
1764974457.2837431,0,0,27,3.375
1764974457.2877462,0,0,26,3.250
1764974457.2917516,0,0,26,3.250
1764974457.2957475,0,0,26,3.250
1764974457.2997475,0,0,26,3.250
1764974457.3037422,0,0,27,3.375
1764974457.3077457,0,0,26,3.250
1764974457.3117514,0,0,26,3.250
1764974457.3157468,0,0,26,3.250
1764974457.3197482,0,0,26,3.250
1764974457.323745,0,0,27,3.375
1764974457.3277433,0,0,26,3.250
1764974457.3317506,0,0,25,3.125
1764974457.335748,0,0,26,3.250
1764974457.3397677,0,0,26,3.250
1764974457.343747,0,0,27,3.375
1764974457.3477435,0,0,26,3.250
1764974457.3517497,0,0,26,3.250
1764974457.3557482,0,0,26,3.250
1764974457.359747,0,0,26,3.250
1764974457.363818,0,0,27,3.375
1764974457.3677611,0,0,27,3.375
1764974457.3717437,0,0,25,3.125
1764974457.3757317,0,0,26,3.250
1764974457.379746,0,0,26,3.250
1764974457.3837485,0,0,27,3.375
1764974457.3877437,0,0,26,3.250
1764974457.3917406,0,0,25,3.125
1764974457.395732,0,0,25,3.125
1764974457.3997488,0,0,26,3.250
1764974457.4037485,0,0,27,3.375
1764974457.407746,0,0,26,3.250
1764974457.4117508,0,0,25,3.125
1764974457.415744,0,0,26,3.250
1764974457.4197714,0,0,26,3.250
1764974457.4237545,0,0,26,3.250
1764974457.427747,0,0,26,3.250
1764974457.431738,0,0,25,3.125
1764974457.4357266,0,0,25,3.125
1764974457.4397793,0,0,26,3.250
1764974457.4437504,0,0,27,3.375
1764974457.4477472,0,0,26,3.250
1764974457.4517438,0,0,25,3.125
1764974457.4557405,0,0,26,3.250
1764974457.4597445,0,0,26,3.250
1764974457.463748,0,0,27,3.375
1764974457.4677434,0,0,26,3.250
1764974457.4717414,0,0,25,3.125
1764974457.4757278,0,0,26,3.250
1764974457.4797475,0,0,26,3.250
1764974457.483748,0,0,27,3.375
1764974457.4877455,0,0,27,3.375
1764974457.491752,0,0,25,3.125
1764974457.495743,0,0,26,3.250
1764974457.499747,0,0,26,3.250
1764974457.5037408,0,0,27,3.375
1764974457.5077446,0,0,27,3.375
1764974457.5117512,0,0,26,3.250
1764974457.5157433,0,0,26,3.250
1764974457.519745,0,0,26,3.250
1764974457.5237405,0,0,27,3.375
1764974457.527747,0,0,25,3.125
1764974457.5317507,0,0,26,3.250
1764974457.5357418,0,0,26,3.250
1764974457.539759,0,0,26,3.250
1764974457.5437407,0,0,27,3.375
1764974457.5477402,0,0,25,3.125
1764974457.5517445,0,0,26,3.250
1764974457.555742,0,0,26,3.250
1764974457.5597467,0,0,26,3.250
1764974457.5638096,0,0,27,3.375
1764974457.5677512,0,0,25,3.125
1764974457.5717397,0,0,25,3.125
1764974457.575728,0,0,26,3.250
1764974457.5797453,0,0,27,3.375
1764974457.583742,0,0,27,3.375
1764974457.58774,0,0,25,3.125
1764974457.5917337,0,0,26,3.250
1764974457.595727,0,0,26,3.250
1764974457.5997467,0,0,27,3.375
1764974457.603747,0,0,28,3.500
1764974457.607743,0,0,25,3.125
1764974457.6117442,0,0,26,3.250
1764974457.6157465,0,0,26,3.250
1764974457.6197498,0,0,27,3.375
1764974457.6237457,0,0,27,3.375
1764974457.6277409,0,0,25,3.125
1764974457.6317434,0,0,26,3.250
1764974457.6357427,0,0,26,3.250
1764974457.6397805,0,0,26,3.250
1764974457.643754,0,0,27,3.375
1764974457.6477509,0,0,25,3.125
1764974457.6517391,0,0,25,3.125
1764974457.6557271,0,0,26,3.250
1764974457.6597419,0,0,27,3.375
1764974457.6637464,0,0,27,3.375
1764974457.6677427,0,0,25,3.125
1764974457.6717331,0,0,26,3.250
1764974457.6757238,0,0,26,3.250
1764974457.6797466,0,0,27,3.375
1764974457.683747,0,0,27,3.375
1764974457.6877458,0,0,25,3.125
1764974457.6917455,0,0,26,3.250
1764974457.695741,0,0,25,3.125
1764974457.6997426,0,0,26,3.250
1764974457.7037408,0,0,27,3.375
1764974457.707739,0,0,25,3.125
1764974457.711744,0,0,25,3.125
1764974457.7157364,0,0,26,3.250
1764974457.7197425,0,0,26,3.250
1764974457.7237372,0,0,27,3.375
1764974457.727742,0,0,25,3.125
1764974457.7317479,0,0,25,3.125
1764974457.7357419,0,0,26,3.250
1764974457.7397823,0,0,26,3.250
1764974457.743741,0,0,27,3.375
1764974457.747742,0,0,25,3.125
1764974457.751744,0,0,25,3.125
1764974457.7557423,0,0,26,3.250
1764974457.7597444,0,0,26,3.250
1764974457.768652,0,0,26,3.250
1764974457.7717705,0,0,26,3.250
1764974457.7757485,0,0,26,3.250
1764974457.7797434,0,0,26,3.250
1764974457.783737,0,0,27,3.375
1764974457.7877355,0,0,26,3.250
1764974457.7920766,0,0,26,3.250
1764974457.795953,0,0,26,3.250
1764974457.7997692,0,0,27,3.375
1764974457.8037388,0,0,27,3.375
1764974457.8077397,0,0,25,3.125
1764974457.811744,0,0,26,3.250
1764974457.8157454,0,0,26,3.250
1764974457.8197443,0,0,26,3.250
1764974457.8237405,0,0,27,3.375
1764974457.8277433,0,0,25,3.125
1764974457.8317516,0,0,25,3.125
1764974457.8357422,0,0,26,3.250
1764974457.8397753,0,0,27,3.375
1764974457.843726,0,0,27,3.375
1764974457.847721,0,0,26,3.250
1764974457.851736,0,0,26,3.250
1764974457.8557339,0,0,26,3.250
1764974457.8597443,0,0,27,3.375
1764974457.8637419,0,0,27,3.375
1764974457.8677394,0,0,25,3.125
1764974457.8717422,0,0,25,3.125
1764974457.875736,0,0,26,3.250
1764974457.8797426,0,0,26,3.250
1764974457.883737,0,0,28,3.500
1764974457.887739,0,0,26,3.250
1764974457.8917396,0,0,25,3.125
1764974457.8957384,0,0,25,3.125
1764974457.8997388,0,0,26,3.250
1764974457.9037416,0,0,27,3.375
1764974457.90774,0,0,26,3.250
1764974457.9117467,0,0,25,3.125
1764974457.9157376,0,0,26,3.250
1764974457.919742,0,0,27,3.375
1764974457.9237394,0,0,27,3.375
1764974457.9277408,0,0,26,3.250
1764974457.9317417,0,0,26,3.250
1764974457.9357374,0,0,26,3.250
1764974457.9397743,0,0,26,3.250
1764974457.943739,0,0,27,3.375
1764974457.94774,0,0,26,3.250
1764974457.9517438,0,0,26,3.250
1764974457.955741,0,0,25,3.125
1764974457.9597433,0,0,26,3.250
1764974457.963736,0,0,27,3.375
1764974457.9678252,0,0,26,3.250
1764974457.9717534,0,0,25,3.125
1764974457.9757261,0,0,25,3.125
1764974457.979737,0,0,26,3.250
1764974457.983721,0,0,27,3.375
1764974457.9877198,0,0,26,3.250
1764974457.9917266,0,0,26,3.250
1764974457.99572,0,0,26,3.250
1764974457.999741,0,0,26,3.250
1764974458.003737,0,0,27,3.375
1764974458.0077374,0,0,26,3.250
1764974458.011747,0,0,25,3.125
1764974458.015741,0,0,26,3.250
1764974458.0197437,0,0,26,3.250
1764974458.0237381,0,0,27,3.375
1764974458.0277379,0,0,26,3.250
1764974458.031744,0,0,25,3.125
1764974458.03574,0,0,25,3.125
1764974458.0397747,0,0,26,3.250
1764974458.0437238,0,0,27,3.375
1764974458.0477214,0,0,26,3.250
1764974458.0517414,0,0,25,3.125
1764974458.0557442,0,0,26,3.250
1764974458.059745,0,0,26,3.250
1764974458.0637264,0,0,27,3.375
1764974458.0677197,0,0,25,3.125
1764974458.0717375,0,0,26,3.250
1764974458.0757358,0,0,27,3.375
1764974458.079736,0,0,27,3.375
1764974458.0837224,0,0,27,3.375
1764974458.0877175,0,0,25,3.125
1764974458.0917406,0,0,25,3.125
1764974458.0957363,0,0,26,3.250
1764974458.0997422,0,0,26,3.250
1764974458.10374,0,0,27,3.375
1764974458.1077383,0,0,25,3.125
1764974458.111738,0,0,26,3.250
1764974458.1157386,0,0,26,3.250
1764974458.1197348,0,0,27,3.375
1764974458.1237226,0,0,27,3.375
1764974458.127723,0,0,25,3.125
1764974458.1317413,0,0,26,3.250
1764974458.1357348,0,0,26,3.250
1764974458.1397665,0,0,27,3.375
1764974458.1437218,0,0,27,3.375
1764974458.1477203,0,0,25,3.125
1764974458.1517434,0,0,26,3.250
1764974458.1557357,0,0,26,3.250
1764974458.159741,0,0,27,3.375
1764974458.1637337,0,0,27,3.375
1764974458.1678193,0,0,25,3.125
1764974458.1717556,0,0,25,3.125
1764974458.1757367,0,0,26,3.250
1764974458.1797416,0,0,27,3.375
1764974458.18374,0,0,27,3.375
1764974458.187737,0,0,25,3.125
1764974458.1917467,0,0,26,3.250
1764974458.1957376,0,0,26,3.250
1764974458.1997383,0,0,27,3.375
1764974458.2037358,0,0,27,3.375
1764974458.207739,0,0,25,3.125
1764974458.2117414,0,0,25,3.125
1764974458.2157352,0,0,26,3.250
1764974458.2197392,0,0,26,3.250
1764974458.2237346,0,0,27,3.375
1764974458.2277336,0,0,25,3.125
1764974458.2317357,0,0,26,3.250
1764974458.2357345,0,0,26,3.250
1764974458.2397795,0,0,26,3.250
1764974458.243733,0,0,27,3.375
1764974458.2477355,0,0,25,3.125
1764974458.2517445,0,0,26,3.250
1764974458.255734,0,0,26,3.250
1764974458.2597356,0,0,26,3.250
1764974458.2637339,0,0,27,3.375
1764974458.267733,0,0,25,3.125
1764974458.2717235,0,0,26,3.250
1764974458.2757192,0,0,26,3.250
1764974458.2797382,0,0,27,3.375
1764974458.2837362,0,0,27,3.375
1764974458.287733,0,0,25,3.125
1764974458.291734,0,0,26,3.250
1764974458.2957342,0,0,26,3.250
1764974458.299739,0,0,27,3.375
1764974458.3037345,0,0,27,3.375
1764974458.3077316,0,0,25,3.125
1764974458.3117368,0,0,26,3.250
1764974458.315733,0,0,26,3.250
1764974458.3197408,0,0,26,3.250
1764974458.323733,0,0,27,3.375
1764974458.3277402,0,0,25,3.125
1764974458.3317392,0,0,25,3.125
1764974458.3357334,0,0,26,3.250
1764974458.3397555,0,0,26,3.250
1764974458.3437366,0,0,27,3.375
1764974458.347736,0,0,25,3.125
1764974458.351739,0,0,25,3.125
1764974458.355734,0,0,26,3.250
1764974458.3597386,0,0,26,3.250
1764974458.3637354,0,0,27,3.375
1764974458.3678062,0,0,25,3.125
1764974458.3717546,0,0,26,3.250
1764974458.375733,0,0,26,3.250
1764974458.3797374,0,0,26,3.250
1764974458.3837373,0,0,27,3.375
1764974458.387735,0,0,25,3.125
1764974458.3917396,0,0,26,3.250
1764974458.39573,0,0,26,3.250
1764974458.3997362,0,0,27,3.375
1764974458.403733,0,0,27,3.375
1764974458.4077322,0,0,26,3.250
1764974458.4117353,0,0,26,3.250
1764974458.4157357,0,0,26,3.250
1764974458.4197338,0,0,27,3.375
1764974458.4237354,0,0,28,3.500
1764974458.4278448,0,0,25,3.125
1764974458.4317594,0,0,26,3.250
1764974458.435732,0,0,26,3.250
1764974458.439772,0,0,26,3.250
1764974458.4437273,0,0,27,3.375
1764974458.4477262,0,0,25,3.125
1764974458.4517293,0,0,25,3.125
1764974458.4557316,0,0,26,3.250
1764974458.459734,0,0,26,3.250
1764974458.4637291,0,0,27,3.375
1764974458.467728,0,0,25,3.125
1764974458.4717329,0,0,26,3.250
1764974458.47573,0,0,26,3.250
1764974458.479734,0,0,27,3.375
1764974458.4837298,0,0,27,3.375
1764974458.4877267,0,0,25,3.125
1764974458.49173,0,0,26,3.250
1764974458.4957325,0,0,26,3.250
1764974458.4997325,0,0,26,3.250
1764974458.5037317,0,0,27,3.375
1764974458.5077305,0,0,25,3.125
1764974458.5117376,0,0,25,3.125
1764974458.5157332,0,0,26,3.250
1764974458.5197394,0,0,26,3.250
1764974458.523733,0,0,27,3.375
1764974458.5277383,0,0,26,3.250
1764974458.531734,0,0,25,3.125
1764974458.53573,0,0,25,3.125
1764974458.5397716,0,0,27,3.375
1764974458.543734,0,0,27,3.375
1764974458.5477328,0,0,25,3.125
1764974458.551733,0,0,25,3.125
1764974458.55573,0,0,26,3.250
1764974458.5597384,0,0,26,3.250
1764974458.5637324,0,0,27,3.375
1764974458.5678098,0,0,26,3.250
1764974458.571749,0,0,25,3.125
1764974458.5757313,0,0,26,3.250
1764974458.5797338,0,0,27,3.375
1764974458.583733,0,0,27,3.375
1764974458.587733,0,0,26,3.250
1764974458.591739,0,0,26,3.250
1764974458.5957274,0,0,26,3.250
1764974458.5997314,0,0,27,3.375
1764974458.6037295,0,0,28,3.500
1764974458.6077302,0,0,25,3.125
1764974458.611731,0,0,26,3.250
1764974458.615727,0,0,26,3.250
1764974458.6197307,0,0,27,3.375
1764974458.6237304,0,0,25,3.125
1764974458.6277373,0,0,25,3.125
1764974458.6317272,0,0,26,3.250
1764974458.6357138,0,0,26,3.250
1764974458.639756,0,0,27,3.375
1764974458.6437123,0,0,25,3.125
1764974458.6477118,0,0,25,3.125
1764974458.6517255,0,0,26,3.250
1764974458.6557152,0,0,26,3.250
1764974458.6597302,0,0,27,3.375
1764974458.6637325,0,0,26,3.250
1764974458.6677299,0,0,25,3.125
1764974458.671736,0,0,26,3.250
1764974458.6757317,0,0,26,3.250
1764974458.67973,0,0,27,3.375
1764974458.683733,0,0,26,3.250
1764974458.6877282,0,0,25,3.125
1764974458.6917348,0,0,25,3.125
1764974458.6957319,0,0,26,3.250
1764974458.6997366,0,0,27,3.375
1764974458.7037263,0,0,26,3.250
1764974458.7077262,0,0,25,3.125
1764974458.7117324,0,0,26,3.250
1764974458.7157302,0,0,27,3.375
1764974458.7197342,0,0,27,3.375
1764974458.7237303,0,0,27,3.375
1764974458.7277272,0,0,25,3.125
1764974458.7317328,0,0,26,3.250
1764974458.7357292,0,0,26,3.250
1764974458.7397687,0,0,27,3.375
1764974458.7437308,0,0,26,3.250
1764974458.747726,0,0,25,3.125
1764974458.7517302,0,0,26,3.250
1764974458.7557266,0,0,26,3.250
1764974458.7597334,0,0,26,3.250
1764974458.7637274,0,0,27,3.375
1764974458.7726736,0,0,26,3.250
1764974458.7757537,0,0,26,3.250
1764974458.7797346,0,0,27,3.375
1764974458.783713,0,0,27,3.375
1764974458.7877128,0,0,25,3.125
1764974458.7920682,0,0,25,3.125
1764974458.7959454,0,0,26,3.250
1764974458.799754,0,0,27,3.375
1764974458.803728,0,0,27,3.375
1764974458.8077261,0,0,25,3.125
1764974458.811733,0,0,26,3.250
1764974458.815722,0,0,27,3.375
1764974458.8197255,0,0,27,3.375
1764974458.823727,0,0,27,3.375
1764974458.8277252,0,0,25,3.125
1764974458.8317332,0,0,26,3.250
1764974458.8357291,0,0,26,3.250
1764974458.8397763,0,0,27,3.375
1764974458.8437357,0,0,27,3.375
1764974458.8477376,0,0,25,3.125
1764974458.8517244,0,0,26,3.250
1764974458.8557098,0,0,27,3.375
1764974458.8597286,0,0,27,3.375
1764974458.863727,0,0,27,3.375
1764974458.8677285,0,0,25,3.125
1764974458.8717258,0,0,26,3.250
1764974458.8757124,0,0,26,3.250
1764974458.879727,0,0,27,3.375
1764974458.8837261,0,0,27,3.375
1764974458.8877275,0,0,25,3.125
1764974458.8917296,0,0,26,3.250
1764974458.895725,0,0,26,3.250
1764974458.8997276,0,0,27,3.375
1764974458.9037251,0,0,27,3.375
1764974458.907725,0,0,26,3.250
1764974458.9117315,0,0,25,3.125
1764974458.9157267,0,0,26,3.250
1764974458.9197288,0,0,26,3.250
1764974458.9237256,0,0,27,3.375
1764974458.9277248,0,0,25,3.125
1764974458.931731,0,0,26,3.250
1764974458.935726,0,0,26,3.250
1764974458.9397714,0,0,26,3.250
1764974458.943726,0,0,27,3.375
1764974458.9477255,0,0,25,3.125
1764974458.9517267,0,0,26,3.250
1764974458.9557235,0,0,26,3.250
1764974458.9597309,0,0,26,3.250
1764974458.9637265,0,0,27,3.375
1764974458.9677227,0,0,25,3.125
1764974458.9718153,0,0,26,3.250
1764974458.9757478,0,0,26,3.250
1764974458.9797287,0,0,27,3.375
1764974458.9837127,0,0,27,3.375
1764974458.9877095,0,0,25,3.125
1764974458.9917374,0,0,25,3.125
1764974458.9957287,0,0,26,3.250
1764974458.999723,0,0,26,3.250
1764974459.0037136,0,0,27,3.375
1764974459.0077112,0,0,24,3.000
1764974459.0117307,0,0,26,3.250
1764974459.015725,0,0,26,3.250
1764974459.0197313,0,0,27,3.375
1764974459.0237274,0,0,27,3.375
1764974459.027729,0,0,25,3.125
1764974459.031741,0,0,26,3.250
1764974459.0357265,0,0,27,3.375
1764974459.039757,0,0,27,3.375
1764974459.043711,0,0,27,3.375
1764974459.0477097,0,0,25,3.125
1764974459.0517302,0,0,26,3.250
1764974459.0557227,0,0,26,3.250
1764974459.0597193,0,0,26,3.250
1764974459.0637083,0,0,27,3.375
1764974459.0677085,0,0,25,3.125
1764974459.0717316,0,0,25,3.125
1764974459.075725,0,0,26,3.250
1764974459.0797276,0,0,26,3.250
1764974459.0837228,0,0,28,3.500
1764974459.0877254,0,0,25,3.125
1764974459.0917256,0,0,26,3.250
1764974459.095723,0,0,26,3.250
1764974459.099726,0,0,27,3.375
1764974459.1037228,0,0,27,3.375
1764974459.1077235,0,0,25,3.125
1764974459.1117327,0,0,25,3.125
1764974459.1157262,0,0,26,3.250
1764974459.1197295,0,0,26,3.250
1764974459.1237257,0,0,27,3.375
1764974459.1277227,0,0,25,3.125
1764974459.1317286,0,0,25,3.125
1764974459.1357253,0,0,26,3.250
1764974459.139739,0,0,27,3.375
1764974459.1437068,0,0,28,3.500
1764974459.147706,0,0,26,3.250
1764974459.1517293,0,0,26,3.250
1764974459.1557271,0,0,27,3.375
1764974459.1597226,0,0,27,3.375
1764974459.1637063,0,0,25,3.125
1764974459.1677046,0,0,25,3.125
1764974459.1718318,0,0,26,3.250
1764974459.1757414,0,0,26,3.250
1764974459.1797261,0,0,27,3.375
1764974459.1837296,0,0,25,3.125
1764974459.1877217,0,0,25,3.125
1764974459.1917284,0,0,25,3.125
1764974459.1957288,0,0,27,3.375
1764974459.199723,0,0,27,3.375
1764974459.2037086,0,0,25,3.125
1764974459.207707,0,0,25,3.125
1764974459.2117276,0,0,26,3.250
1764974459.2157218,0,0,27,3.375
1764974459.2197268,0,0,27,3.375
1764974459.223724,0,0,26,3.250
1764974459.2277224,0,0,25,3.125
1764974459.2317266,0,0,26,3.250
1764974459.2357268,0,0,26,3.250
1764974459.2397616,0,0,27,3.375
1764974459.2437086,0,0,26,3.250
1764974459.2477071,0,0,25,3.125
1764974459.2517245,0,0,25,3.125
1764974459.25572,0,0,26,3.250
1764974459.2597156,0,0,28,3.500
1764974459.2637067,0,0,26,3.250
1764974459.2677073,0,0,25,3.125
1764974459.2717302,0,0,26,3.250
1764974459.2757206,0,0,26,3.250
1764974459.2797246,0,0,27,3.375
1764974459.2837212,0,0,26,3.250
1764974459.287725,0,0,25,3.125
1764974459.2917302,0,0,26,3.250
1764974459.2957191,0,0,26,3.250
1764974459.2997367,0,0,27,3.375
1764974459.303721,0,0,26,3.250
1764974459.3077211,0,0,25,3.125
1764974459.3117301,0,0,26,3.250
1764974459.3157346,0,0,27,3.375
1764974459.319726,0,0,27,3.375
1764974459.323721,0,0,26,3.250
1764974459.3277233,0,0,25,3.125
1764974459.3317387,0,0,25,3.125
1764974459.3357239,0,0,26,3.250
1764974459.3396893,0,0,27,3.375
1764974459.3437223,0,0,26,3.250
1764974459.347733,0,0,25,3.125
1764974459.35173,0,0,26,3.250
1764974459.3557248,0,0,26,3.250
1764974459.359728,0,0,27,3.375
1764974459.3637311,0,0,26,3.250
1764974459.3677201,0,0,25,3.125
1764974459.3718102,0,0,26,3.250
1764974459.3757381,0,0,26,3.250
1764974459.3797324,0,0,27,3.375
1764974459.383704,0,0,27,3.375
1764974459.3877032,0,0,25,3.125
1764974459.3917236,0,0,25,3.125
1764974459.3957338,0,0,26,3.250
1764974459.3997138,0,0,27,3.375
1764974459.4037046,0,0,26,3.250
1764974459.4077036,0,0,25,3.125
1764974459.4117239,0,0,26,3.250
1764974459.4157188,0,0,26,3.250
1764974459.4197264,0,0,27,3.375
1764974459.4237335,0,0,26,3.250
1764974459.4277184,0,0,25,3.125
1764974459.4317274,0,0,26,3.250
1764974459.4357212,0,0,26,3.250
1764974459.439765,0,0,27,3.375
1764974459.4437227,0,0,26,3.250
1764974459.4477324,0,0,25,3.125
1764974459.4517183,0,0,26,3.250
1764974459.4557002,0,0,26,3.250
1764974459.4597187,0,0,27,3.375
1764974459.463721,0,0,27,3.375
1764974459.4677184,0,0,25,3.125
1764974459.4717178,0,0,26,3.250
1764974459.4757128,0,0,26,3.250
1764974459.4797251,0,0,27,3.375
1764974459.4837253,0,0,27,3.375
1764974459.4877205,0,0,25,3.125
1764974459.491723,0,0,26,3.250
1764974459.4957201,0,0,26,3.250
1764974459.4997234,0,0,27,3.375
1764974459.503721,0,0,27,3.375
1764974459.5077229,0,0,26,3.250
1764974459.5117223,0,0,25,3.125
1764974459.5157127,0,0,26,3.250
1764974459.5197158,0,0,27,3.375
1764974459.5237215,0,0,27,3.375
1764974459.5277193,0,0,26,3.250
1764974459.5317187,0,0,26,3.250
1764974459.535716,0,0,26,3.250
1764974459.5397363,0,0,26,3.250
1764974459.5437155,0,0,26,3.250
1764974459.54772,0,0,25,3.125
1764974459.5517232,0,0,26,3.250
1764974459.555719,0,0,26,3.250
1764974459.5597186,0,0,27,3.375
1764974459.5637133,0,0,27,3.375
1764974459.5677154,0,0,25,3.125
1764974459.5717978,0,0,26,3.250
1764974459.5757535,0,0,26,3.250
1764974459.5797222,0,0,27,3.375
1764974459.5837018,0,0,27,3.375
1764974459.5877016,0,0,25,3.125
1764974459.5917246,0,0,25,3.125
1764974459.5957205,0,0,26,3.250
1764974459.5997152,0,0,26,3.250
1764974459.6037018,0,0,27,3.375
1764974459.607699,0,0,25,3.125
1764974459.6117356,0,0,26,3.250
1764974459.6157193,0,0,26,3.250
1764974459.6197252,0,0,26,3.250
1764974459.6237152,0,0,27,3.375
1764974459.6277237,0,0,25,3.125
1764974459.6317215,0,0,26,3.250
1764974459.6357396,0,0,26,3.250
1764974459.6397588,0,0,27,3.375
1764974459.6437054,0,0,27,3.375
1764974459.6476977,0,0,25,3.125
1764974459.6517293,0,0,26,3.250
1764974459.6557221,0,0,26,3.250
1764974459.659717,0,0,26,3.250
1764974459.6637022,0,0,28,3.500
1764974459.6677,0,0,25,3.125
1764974459.6717222,0,0,26,3.250
1764974459.6757176,0,0,26,3.250
1764974459.6797237,0,0,26,3.250
1764974459.683724,0,0,27,3.375
1764974459.6877193,0,0,25,3.125
1764974459.6917155,0,0,26,3.250
1764974459.695716,0,0,26,3.250
1764974459.6997256,0,0,26,3.250
1764974459.703722,0,0,25,3.125
1764974459.7077205,0,0,26,3.250
1764974459.711724,0,0,26,3.250
1764974459.7157185,0,0,26,3.250
1764974459.7197137,0,0,27,3.375
1764974459.7237036,0,0,25,3.125
1764974459.7277029,0,0,25,3.125
1764974459.7317226,0,0,26,3.250
1764974459.7357168,0,0,27,3.375
1764974459.7397368,0,0,27,3.375
1764974459.7437189,0,0,25,3.125
1764974459.747718,0,0,25,3.125
1764974459.7517216,0,0,26,3.250
1764974459.7557158,0,0,26,3.250
1764974459.7597184,0,0,28,3.500
1764974459.7637157,0,0,25,3.125
1764974459.7677171,0,0,25,3.125
1764974459.7766423,0,0,27,3.375
1764974459.7797399,0,0,27,3.375
1764974459.783718,0,0,25,3.125
1764974459.787719,0,0,25,3.125
1764974459.7920487,0,0,26,3.250
1764974459.7959354,0,0,26,3.250
1764974459.7997484,0,0,27,3.375
1764974459.8037126,0,0,26,3.250
1764974459.8077128,0,0,25,3.125
1764974459.8117633,0,0,26,3.250
1764974459.815731,0,0,26,3.250
1764974459.819717,0,0,27,3.375
1764974459.8237143,0,0,25,3.125
1764974459.8277118,0,0,25,3.125
1764974459.8317392,0,0,25,3.125
1764974459.8357232,0,0,26,3.250
1764974459.839765,0,0,27,3.375
1764974459.8437111,0,0,25,3.125
1764974459.847712,0,0,25,3.125
1764974459.8517213,0,0,26,3.250
1764974459.8557177,0,0,26,3.250
1764974459.8597102,0,0,27,3.375
1764974459.8636987,0,0,25,3.125
1764974459.8676982,0,0,25,3.125
1764974459.871721,0,0,26,3.250
1764974459.8757186,0,0,26,3.250
1764974459.8797219,0,0,27,3.375
1764974459.8837163,0,0,25,3.125
1764974459.887716,0,0,25,3.125
1764974459.8917112,0,0,26,3.250
1764974459.8957007,0,0,26,3.250
1764974459.8997173,0,0,27,3.375
1764974459.90372,0,0,26,3.250
1764974459.9077153,0,0,25,3.125
1764974459.9117203,0,0,26,3.250
1764974459.9157157,0,0,26,3.250
1764974459.9197214,0,0,27,3.375
1764974459.9237177,0,0,26,3.250
1764974459.9277153,0,0,25,3.125
1764974459.9317145,0,0,26,3.250
1764974459.9357119,0,0,26,3.250
1764974459.9397511,0,0,27,3.375
1764974459.9437175,0,0,26,3.250
1764974459.9477162,0,0,26,3.250
1764974459.9517207,0,0,26,3.250
1764974459.955714,0,0,27,3.375
1764974459.9597201,0,0,27,3.375
1764974459.963718,0,0,26,3.250
1764974459.967717,0,0,25,3.125
1764974459.971721,0,0,26,3.250
1764974459.9757907,0,0,26,3.250
1764974459.9797285,0,0,27,3.375
1764974459.983701,0,0,26,3.250
1764974459.9877005,0,0,25,3.125
1764974459.9917238,0,0,26,3.250
1764974459.9957159,0,0,26,3.250
1764974459.999709,0,0,27,3.375
1764974460.0036962,0,0,26,3.250
1764974460.0076993,0,0,25,3.125
1764974460.01172,0,0,26,3.250
1764974460.0157151,0,0,26,3.250
1764974460.019706,0,0,27,3.375
1764974460.0236933,0,0,26,3.250
1764974460.0276968,0,0,25,3.125
1764974460.0317194,0,0,26,3.250
1764974460.0357108,0,0,26,3.250
1764974460.03976,0,0,27,3.375
1764974460.0437143,0,0,27,3.375
1764974460.0477107,0,0,25,3.125
1764974460.0517182,0,0,25,3.125
1764974460.055713,0,0,26,3.250
1764974460.0597124,0,0,27,3.375
1764974460.0637136,0,0,26,3.250
1764974460.067713,0,0,25,3.125
1764974460.071719,0,0,26,3.250
1764974460.0757089,0,0,26,3.250
1764974460.0797207,0,0,27,3.375
1764974460.0837142,0,0,26,3.250
1764974460.087713,0,0,25,3.125
1764974460.091714,0,0,25,3.125
1764974460.0957146,0,0,26,3.250
1764974460.0997193,0,0,27,3.375
1764974460.1037161,0,0,27,3.375
1764974460.107709,0,0,25,3.125
1764974460.1117132,0,0,25,3.125
1764974460.1157138,0,0,26,3.250
1764974460.1197102,0,0,27,3.375
1764974460.1236968,0,0,27,3.375
1764974460.127695,0,0,25,3.125
1764974460.1317136,0,0,25,3.125
1764974460.1357107,0,0,26,3.250
1764974460.1397212,0,0,27,3.375
1764974460.1436958,0,0,27,3.375
1764974460.1476932,0,0,25,3.125
1764974460.1517115,0,0,26,3.250
1764974460.1557062,0,0,26,3.250
1764974460.159718,0,0,26,3.250
1764974460.1637137,0,0,27,3.375
1764974460.167712,0,0,25,3.125
1764974460.171708,0,0,26,3.250
1764974460.1757839,0,0,26,3.250
1764974460.1797194,0,0,27,3.375
1764974460.1837122,0,0,27,3.375
1764974460.1876976,0,0,25,3.125
1764974460.1917138,0,0,26,3.250
1764974460.1957078,0,0,27,3.375
1764974460.1997058,0,0,27,3.375
1764974460.203695,0,0,27,3.375
1764974460.207694,0,0,25,3.125
1764974460.2117164,0,0,26,3.250
1764974460.2157109,0,0,26,3.250
1764974460.2197163,0,0,27,3.375
1764974460.2237139,0,0,26,3.250
1764974460.2277226,0,0,25,3.125
1764974460.231716,0,0,25,3.125
1764974460.2357264,0,0,26,3.250
1764974460.2397513,0,0,26,3.250
1764974460.243696,0,0,27,3.375
1764974460.2476969,0,0,25,3.125
1764974460.251726,0,0,26,3.250
1764974460.255712,0,0,27,3.375
1764974460.2597063,0,0,28,3.500
1764974460.2636929,0,0,25,3.125
1764974460.267706,0,0,26,3.250
1764974460.2717192,0,0,26,3.250
1764974460.2757177,0,0,27,3.375
1764974460.2797136,0,0,27,3.375
1764974460.2837088,0,0,25,3.125
1764974460.2877076,0,0,26,3.250
1764974460.2917125,0,0,26,3.250
1764974460.2957106,0,0,27,3.375
1764974460.299715,0,0,26,3.250
1764974460.3037062,0,0,25,3.125
1764974460.3077078,0,0,26,3.250
1764974460.3117156,0,0,26,3.250
1764974460.3157105,0,0,26,3.250
1764974460.3197145,0,0,27,3.375
1764974460.3237095,0,0,25,3.125
1764974460.327706,0,0,25,3.125
1764974460.331713,0,0,26,3.250
1764974460.3357072,0,0,26,3.250
1764974460.3397286,0,0,27,3.375
1764974460.3437092,0,0,25,3.125
1764974460.3477054,0,0,26,3.250
1764974460.3517084,0,0,26,3.250
1764974460.3557098,0,0,26,3.250
1764974460.3597136,0,0,27,3.375
1764974460.363708,0,0,25,3.125
1764974460.3677056,0,0,25,3.125
1764974460.371711,0,0,26,3.250
1764974460.375778,0,0,27,3.375
1764974460.3797216,0,0,28,3.500
1764974460.3836946,0,0,25,3.125
1764974460.3876941,0,0,26,3.250
1764974460.3917098,0,0,26,3.250
1764974460.3957074,0,0,26,3.250
1764974460.3997083,0,0,27,3.375
1764974460.4037046,0,0,25,3.125
1764974460.4076934,0,0,25,3.125
1764974460.4117105,0,0,26,3.250
1764974460.4157066,0,0,26,3.250
1764974460.419709,0,0,27,3.375
1764974460.4237096,0,0,25,3.125
1764974460.427711,0,0,26,3.250
1764974460.4317176,0,0,26,3.250
1764974460.4357107,0,0,26,3.250
1764974460.4397504,0,0,27,3.375
1764974460.4436934,0,0,25,3.125
1764974460.4477084,0,0,26,3.250
1764974460.451713,0,0,26,3.250
1764974460.4557068,0,0,27,3.375
1764974460.4597127,0,0,27,3.375
1764974460.4636881,0,0,25,3.125
1764974460.4676943,0,0,26,3.250
1764974460.4717104,0,0,26,3.250
1764974460.475709,0,0,26,3.250
1764974460.479712,0,0,27,3.375
1764974460.4837065,0,0,25,3.125
1764974460.4877062,0,0,25,3.125
1764974460.4917128,0,0,26,3.250
1764974460.495708,0,0,27,3.375
1764974460.4997113,0,0,27,3.375
1764974460.5037065,0,0,25,3.125
1764974460.5077074,0,0,26,3.250
1764974460.5117164,0,0,26,3.250
1764974460.5157108,0,0,26,3.250
1764974460.5197225,0,0,28,3.500
1764974460.5237076,0,0,26,3.250
1764974460.527704,0,0,26,3.250
1764974460.5317082,0,0,26,3.250
1764974460.5357058,0,0,26,3.250
1764974460.5397334,0,0,27,3.375
1764974460.5437071,0,0,26,3.250
1764974460.5477026,0,0,26,3.250
1764974460.5517068,0,0,26,3.250
1764974460.5557067,0,0,26,3.250
1764974460.5597105,0,0,27,3.375
1764974460.5637038,0,0,25,3.125
1764974460.5677028,0,0,26,3.250
1764974460.5717065,0,0,25,3.125
1764974460.5757742,0,0,26,3.250
1764974460.5797179,0,0,27,3.375
1764974460.5836914,0,0,26,3.250
1764974460.5876877,0,0,25,3.125
1764974460.5917108,0,0,26,3.250
1764974460.5957065,0,0,26,3.250
1764974460.5997014,0,0,27,3.375
1764974460.6036913,0,0,26,3.250
1764974460.6076853,0,0,25,3.125
1764974460.6117082,0,0,26,3.250
1764974460.6157029,0,0,26,3.250
1764974460.6197107,0,0,27,3.375
1764974460.6237051,0,0,26,3.250
1764974460.6277053,0,0,25,3.125
1764974460.6317122,0,0,26,3.250
1764974460.6357045,0,0,26,3.250
1764974460.6397252,0,0,27,3.375
1764974460.6437156,0,0,26,3.250
1764974460.6477036,0,0,25,3.125
1764974460.651702,0,0,26,3.250
1764974460.6556928,0,0,26,3.250
1764974460.6597035,0,0,27,3.375
1764974460.6637082,0,0,26,3.250
1764974460.6677072,0,0,26,3.250
1764974460.6717005,0,0,25,3.125
1764974460.6756868,0,0,27,3.375
1764974460.6797028,0,0,28,3.500
1764974460.6837108,0,0,26,3.250
1764974460.6877067,0,0,25,3.125
1764974460.6917067,0,0,26,3.250
1764974460.6957023,0,0,26,3.250
1764974460.6997056,0,0,27,3.375
1764974460.7037024,0,0,26,3.250
1764974460.7077055,0,0,26,3.250
1764974460.711708,0,0,26,3.250
1764974460.7157047,0,0,26,3.250
1764974460.7197075,0,0,27,3.375
1764974460.7237024,0,0,26,3.250
1764974460.7277048,0,0,25,3.125
1764974460.7317078,0,0,26,3.250
1764974460.7357068,0,0,26,3.250
1764974460.7397466,0,0,27,3.375
1764974460.7437017,0,0,26,3.250
1764974460.7477007,0,0,25,3.125
1764974460.7517107,0,0,26,3.250
1764974460.7557044,0,0,26,3.250
1764974460.7597008,0,0,27,3.375
1764974460.7636833,0,0,27,3.375
1764974460.7676835,0,0,25,3.125
1764974460.7717087,0,0,26,3.250
1764974460.880822,0,0,27,3.375
1764974460.883754,0,0,25,3.125
1764974460.8877091,0,0,25,3.125
1764974460.8917024,0,0,25,3.125
1764974460.8956988,0,0,26,3.250
1764974460.8997028,0,0,27,3.375
1764974460.9037027,0,0,25,3.125
1764974460.9077008,0,0,25,3.125
1764974460.911703,0,0,25,3.125
1764974460.9156885,0,0,27,3.375
1764974460.9197793,0,0,27,3.375
1764974460.9237409,0,0,25,3.125
1764974460.927725,0,0,26,3.250
1764974460.9317205,0,0,26,3.250
1764974460.935716,0,0,27,3.375
1764974460.939785,0,0,27,3.375
1764974460.9437323,0,0,25,3.125
1764974460.9477315,0,0,26,3.250
1764974460.951756,0,0,26,3.250
1764974460.9557502,0,0,27,3.375
1764974460.9597566,0,0,27,3.375
1764974460.9637656,0,0,25,3.125
1764974460.9677482,0,0,26,3.250
1764974460.9717531,0,0,26,3.250
1764974460.9757497,0,0,26,3.250
1764974460.9797506,0,0,27,3.375
1764974460.9837456,0,0,26,3.250
1764974460.9877474,0,0,26,3.250
1764974460.9917517,0,0,26,3.250
