Timestamp,LO_plus,LO_minus,Raw_ADC,Voltage_mV
0.010990142822265625,1,1,4593,287.062
0.012230873107910156,1,1,4593,287.062
0.013365030288696289,1,1,4614,288.375
0.01718902587890625,1,1,4642,290.125
0.021172761917114258,1,1,4602,287.625
0.025171518325805664,1,1,4583,286.438
0.029169797897338867,1,1,4596,287.250
0.03317618370056152,1,1,4610,288.125
0.03717613220214844,1,1,4647,290.438
0.04117631912231445,1,1,4602,287.625
0.045171499252319336,1,1,4591,286.938
0.04917550086975098,1,1,4596,287.250
0.05319523811340332,1,1,4601,287.562
0.05718994140625,1,1,4648,290.500
0.06117820739746094,1,1,4596,287.250
0.06518292427062988,1,1,4593,287.062
0.06917667388916016,1,1,4588,286.750
0.07317423820495605,1,1,4608,288.000
0.07717490196228027,1,1,4652,290.750
0.0811767578125,1,1,4603,287.688
0.08517217636108398,1,1,4593,287.062
0.08917427062988281,1,1,4586,286.625
0.09317350387573242,1,1,4598,287.375
0.09717321395874023,1,1,4655,290.938
0.10117459297180176,1,1,4601,287.562
0.10518693923950195,1,1,4594,287.125
0.10917830467224121,1,1,4594,287.125
0.1131737232208252,1,1,4608,288.000
0.11717391014099121,1,1,4650,290.625
0.12117457389831543,1,1,4603,287.688
0.12517380714416504,1,1,4592,287.000
0.12917494773864746,1,1,4588,286.750
0.13317394256591797,1,1,4610,288.125
0.13717293739318848,1,1,4652,290.750
0.1411728858947754,1,1,4605,287.812
0.1451733112335205,1,1,4592,287.000
0.1491687297821045,1,1,4588,286.750
0.15317487716674805,1,1,4606,287.875
0.15717291831970215,1,1,4643,290.188
0.16117382049560547,1,1,4605,287.812
0.16516900062561035,1,1,4597,287.312
0.16916751861572266,1,1,4588,286.750
0.1731710433959961,1,1,4604,287.750
0.17717385292053223,1,1,4651,290.688
0.18117427825927734,1,1,4603,287.688
0.18517708778381348,1,1,4594,287.125
0.18917417526245117,1,1,4590,286.875
0.19317293167114258,1,1,4599,287.438
0.1971731185913086,1,1,4640,290.000
0.2011730670928955,1,1,4608,288.000
0.20528602600097656,1,1,4599,287.438
0.209259033203125,1,1,4590,286.875
0.21318817138671875,1,1,4606,287.875
0.21716833114624023,1,1,4639,289.938
0.2211756706237793,1,1,4605,287.812
0.22518157958984375,1,1,4597,287.312
0.22919559478759766,1,1,4588,286.750
0.23327136039733887,1,1,4602,287.625
0.2371807098388672,1,1,4651,290.688
0.24118256568908691,1,1,4614,288.375
0.24517822265625,1,1,4596,287.250
0.24916553497314453,1,1,4586,286.625
0.2531728744506836,1,1,4601,287.562
0.257171630859375,1,1,4641,290.062
0.26117944717407227,1,1,4615,288.438
0.26517176628112793,1,1,4592,287.000
0.26917099952697754,1,1,4592,287.000
0.27317333221435547,1,1,4596,287.250
0.2771728038787842,1,1,4640,290.000
0.2811737060546875,1,1,4607,287.938
0.2851686477661133,1,1,4595,287.188
0.289170503616333,1,1,4588,286.750
0.29317307472229004,1,1,4600,287.500
0.29717206954956055,1,1,4645,290.312
0.30117321014404297,1,1,4608,288.000
0.3051748275756836,1,1,4593,287.062
0.3091733455657959,1,1,4590,286.875
0.3131718635559082,1,1,4600,287.500
0.3171720504760742,1,1,4641,290.062
0.32117223739624023,1,1,4621,288.812
0.32517004013061523,1,1,4598,287.375
0.32917189598083496,1,1,4595,287.188
0.3331716060638428,1,1,4601,287.562
0.3371706008911133,1,1,4638,289.875
0.3411715030670166,1,1,4622,288.875
0.34517526626586914,1,1,4591,286.938
0.34917330741882324,1,1,4587,286.688
0.35317111015319824,1,1,4601,287.562
0.35717034339904785,1,1,4642,290.125
0.3611721992492676,1,1,4616,288.500
0.36516666412353516,1,1,4592,287.000
0.36916565895080566,1,1,4586,286.625
0.3731706142425537,1,1,4597,287.312
0.3771703243255615,1,1,4640,290.000
0.38117194175720215,1,1,4626,289.125
0.3851752281188965,1,1,4591,286.938
0.38917088508605957,1,1,4588,286.750
0.39316868782043457,1,1,4593,287.062
0.39716386795043945,1,1,4633,289.562
0.40116310119628906,1,1,4619,288.688
0.40517115592956543,1,1,4597,287.312
0.40917038917541504,1,1,4585,286.562
0.41317033767700195,1,1,4601,287.562
0.41716885566711426,1,1,4636,289.750
0.42116808891296387,1,1,4627,289.188
0.4251718521118164,1,1,4595,287.188
0.4291708469390869,1,1,4585,286.562
0.4331693649291992,1,1,4598,287.375
0.43716907501220703,1,1,4634,289.625
0.44117021560668945,1,1,4625,289.062
0.4451718330383301,1,1,4593,287.062
0.4491701126098633,1,1,4591,286.938
0.453169584274292,1,1,4601,287.562
0.4571704864501953,1,1,4639,289.938
0.461169958114624,1,1,4631,289.438
0.4651758670806885,1,1,4598,287.375
0.4691739082336426,1,1,4582,286.375
0.4731721878051758,1,1,4601,287.562
0.47728991508483887,1,1,4632,289.500
0.4812355041503906,1,1,4634,289.625
0.48525452613830566,1,1,4591,286.938
0.48926234245300293,1,1,4594,287.125
0.4932742118835449,1,1,4596,287.250
0.49723362922668457,1,1,4634,289.625
0.501234769821167,1,1,4624,289.000
0.5052354335784912,1,1,4593,287.062
0.5092542171478271,1,1,4585,286.562
0.5132555961608887,1,1,4598,287.375
0.5172345638275146,1,1,4631,289.438
0.5212342739105225,1,1,4627,289.188
0.52522873878479,1,1,4592,287.000
0.5292508602142334,1,1,4590,286.875
0.5332584381103516,1,1,4592,287.000
0.5372331142425537,1,1,4620,288.750
0.5412304401397705,1,1,4629,289.312
0.5452358722686768,1,1,4586,286.625
0.5492544174194336,1,1,4584,286.500
0.5532550811767578,1,1,4596,287.250
0.5572304725646973,1,1,4620,288.750
0.5612308979034424,1,1,4628,289.250
0.5652298927307129,1,1,4598,287.375
0.5692520141601562,1,1,4587,286.688
0.5732536315917969,1,1,4627,289.188
0.5773394107818604,1,1,4633,289.562
0.5813007354736328,1,1,4601,287.562
0.5853025913238525,1,1,4586,286.625
0.5893251895904541,1,1,4598,287.375
0.5933401584625244,1,1,4619,288.688
0.5972962379455566,1,1,4629,289.312
0.6012957096099854,1,1,4596,287.250
0.6052937507629395,1,1,4589,286.812
0.6093223094940186,1,1,4594,287.125
0.6133277416229248,1,1,4619,288.688
0.6172947883605957,1,1,4630,289.375
0.6212949752807617,1,1,4607,287.938
0.6252970695495605,1,1,4584,286.500
0.6293239593505859,1,1,4599,287.438
0.6333253383636475,1,1,4613,288.312
0.6372945308685303,1,1,4635,289.688
0.641294002532959,1,1,4597,287.312
0.6452875137329102,1,1,4593,287.062
0.6493091583251953,1,1,4593,287.062
0.6533234119415283,1,1,4616,288.500
0.657294511795044,1,1,4636,289.750
0.6613004207611084,1,1,4602,287.625
0.6652934551239014,1,1,4586,286.625
0.6693239212036133,1,1,4595,287.188
0.6733181476593018,1,1,4622,288.875
0.677412748336792,1,1,4643,290.188
0.6812489032745361,1,1,4603,287.688
0.6852588653564453,1,1,4593,287.062
0.6892690658569336,1,1,4600,287.500
0.6932883262634277,1,1,4623,288.938
0.6972560882568359,1,1,4642,290.125
0.7012581825256348,1,1,4598,287.375
0.705258846282959,1,1,4598,287.375
0.7092828750610352,1,1,4598,287.375
0.7132813930511475,1,1,4608,288.000
0.7172589302062988,1,1,4640,290.000
0.7212567329406738,1,1,4603,287.688
0.7252533435821533,1,1,4589,286.812
0.7292847633361816,1,1,4588,286.750
0.733283281326294,1,1,4610,288.125
0.7372746467590332,1,1,4640,290.000
0.7412567138671875,1,1,4605,287.812
0.7452600002288818,1,1,4598,287.375
0.7492868900299072,1,1,4593,287.062
0.7532806396484375,1,1,4609,288.062
0.7572536468505859,1,1,4644,290.250
0.7612552642822266,1,1,4603,287.688
0.7652542591094971,1,1,4591,286.938
0.7692668437957764,1,1,4591,286.938
0.7732830047607422,1,1,4600,287.500
0.7773425579071045,1,1,4643,290.188
0.7812979221343994,1,1,4609,288.062
0.7852976322174072,1,1,4599,287.438
0.7893261909484863,1,1,4590,286.875
0.7933285236358643,1,1,4603,287.688
0.797292947769165,1,1,4655,290.938
0.8012917041778564,1,1,4609,288.062
0.8052923679351807,1,1,4599,287.438
0.8093218803405762,1,1,4592,287.000
0.8133261203765869,1,1,4602,287.625
0.8172965049743652,1,1,4642,290.125
0.821295976638794,1,1,4606,287.875
0.8252947330474854,1,1,4594,287.125
0.8293025493621826,1,1,4588,286.750
0.8333237171173096,1,1,4607,287.938
0.837294340133667,1,1,4647,290.438
0.8412916660308838,1,1,4609,288.062
0.8455321788787842,1,1,4591,286.938
0.8495585918426514,1,1,4588,286.750
0.853445291519165,1,1,4605,287.812
0.8572988510131836,1,1,4650,290.625
0.8612940311431885,1,1,4603,287.688
0.865290641784668,1,1,4591,286.938
0.869307279586792,1,1,4590,286.875
0.8733258247375488,1,1,4610,288.125
0.8774001598358154,1,1,4656,291.000
0.8812565803527832,1,1,4606,287.875
0.8852567672729492,1,1,4593,287.062
0.8892831802368164,1,1,4592,287.000
0.893287181854248,1,1,4597,287.312
0.897254228591919,1,1,4648,290.500
0.901256799697876,1,1,4603,287.688
0.9052538871765137,1,1,4588,286.750
0.9092941284179688,1,1,4592,287.000
0.9132895469665527,1,1,4605,287.812
0.9172589778900146,1,1,4653,290.812
0.9212555885314941,1,1,4607,287.938
0.9252514839172363,1,1,4594,287.125
0.9292693138122559,1,1,4585,286.562
0.9332985877990723,1,1,4599,287.438
0.9372556209564209,1,1,4646,290.375
0.9412519931793213,1,1,4604,287.750
0.9452536106109619,1,1,4595,287.188
0.9492647647857666,1,1,4593,287.062
0.9532787799835205,1,1,4601,287.562
0.9572536945343018,1,1,4648,290.500
0.961254358291626,1,1,4610,288.125
0.9652619361877441,1,1,4587,286.688
0.9692888259887695,1,1,4595,287.188
0.9732840061187744,1,1,4596,287.250
0.97735595703125,1,1,4640,290.000
0.9812946319580078,1,1,4605,287.812
0.9852969646453857,1,1,4594,287.125
0.989323616027832,1,1,4586,286.625
0.9933609962463379,1,1,4597,287.312
0.9972915649414062,1,1,4640,290.000
1.0012907981872559,1,1,4613,288.312
1.0123622417449951,1,1,4589,286.812
1.0136635303497314,1,1,4589,286.812
1.0172936916351318,1,1,4641,290.062
1.0212786197662354,1,1,4608,288.000
1.025282621383667,1,1,4587,286.688
1.0292942523956299,1,1,4590,286.875
1.0333292484283447,1,1,4606,287.875
1.0372912883758545,1,1,4645,290.312
1.041290521621704,1,1,4616,288.500
1.045288324356079,1,1,4599,287.438
1.0493252277374268,1,1,4585,286.562
1.0533218383789062,1,1,4611,288.188
1.0572903156280518,1,1,4647,290.438
1.061291217803955,1,1,4622,288.875
1.0652954578399658,1,1,4594,287.125
1.0693161487579346,1,1,4587,286.688
1.073322057723999,1,1,4607,287.938
1.0772984027862549,1,1,4639,289.938
1.081263780593872,1,1,4623,288.938
1.0852477550506592,1,1,4596,287.250
1.0892524719238281,1,1,4586,286.625
1.0932879447937012,1,1,4603,287.688
1.097254991531372,1,1,4643,290.188
1.1012547016143799,1,1,4613,288.312
1.1052544116973877,1,1,4592,287.000
1.109281063079834,1,1,4587,286.688
1.1132838726043701,1,1,4606,287.875
1.1172540187835693,1,1,4633,289.562
1.121250867843628,1,1,4615,288.438
1.125248908996582,1,1,4595,287.188
1.1292777061462402,1,1,4589,286.812
1.1332778930664062,1,1,4635,289.688
1.137251853942871,1,1,4614,288.375
1.141251802444458,1,1,4593,287.062
1.1452467441558838,1,1,4581,286.312
1.1492509841918945,1,1,4604,287.750
1.1532831192016602,1,1,4629,289.312
1.1572532653808594,1,1,4628,289.250
1.1612498760223389,1,1,4596,287.250
1.165248155593872,1,1,4588,286.750
1.1692771911621094,1,1,4597,287.312
1.1732800006866455,1,1,4635,289.688
1.177337408065796,1,1,4624,289.000
1.1812949180603027,1,1,4597,287.312
1.1852869987487793,1,1,4588,286.750
1.1893093585968018,1,1,4601,287.562
1.1933374404907227,1,1,4635,289.688
1.1972920894622803,1,1,4621,288.812
1.201287031173706,1,1,4600,287.500
1.2052834033966064,1,1,4592,287.000
1.2093172073364258,1,1,4594,287.125
1.2133152484893799,1,1,4627,289.188
1.2172744274139404,1,1,4622,288.875
1.2212867736816406,1,1,4604,287.750
1.225285291671753,1,1,4589,286.812
1.2293028831481934,1,1,4602,287.625
1.2333250045776367,1,1,4633,289.562
1.2372872829437256,1,1,4620,288.750
1.2412867546081543,1,1,4601,287.562
1.2452869415283203,1,1,4587,286.688
1.2493183612823486,1,1,4596,287.250
1.2533197402954102,1,1,4632,289.500
1.2572863101959229,1,1,4623,288.938
1.261289358139038,1,1,4598,287.375
1.2652862071990967,1,1,4586,286.625
1.2693231105804443,1,1,4591,286.938
1.2733256816864014,1,1,4627,289.188
1.2773818969726562,1,1,4628,289.250
1.2812511920928955,1,1,4598,287.375
1.2852497100830078,1,1,4593,287.062
1.2892773151397705,1,1,4591,286.938
1.2932803630828857,1,1,4625,289.062
1.297250509262085,1,1,4625,289.062
1.30125093460083,1,1,4605,287.812
1.305253028869629,1,1,4586,286.625
1.309260606765747,1,1,4598,287.375
1.3132779598236084,1,1,4628,289.250
1.317253589630127,1,1,4632,289.500
1.3212499618530273,1,1,4601,287.562
1.3252415657043457,1,1,4584,286.500
1.3292655944824219,1,1,4596,287.250
1.3332488536834717,1,1,4619,288.688
1.3372480869293213,1,1,4632,289.500
1.3412485122680664,1,1,4598,287.375
1.3452508449554443,1,1,4589,286.812
1.349278211593628,1,1,4593,287.062
1.3532743453979492,1,1,4619,288.688
1.3572514057159424,1,1,4636,289.750
1.3612604141235352,1,1,4599,287.438
1.3652434349060059,1,1,4586,286.625
1.369267225265503,1,1,4596,287.250
1.3732481002807617,1,1,4623,288.938
1.3773531913757324,1,1,4640,290.000
1.381375789642334,1,1,4601,287.562
1.3853304386138916,1,1,4585,286.562
1.3895092010498047,1,1,4594,287.125
1.3934588432312012,1,1,4623,288.938
1.3972923755645752,1,1,4639,289.938
1.401280164718628,1,1,4599,287.438
1.405297040939331,1,1,4590,286.875
1.409391164779663,1,1,4598,287.375
1.4133343696594238,1,1,4613,288.312
1.417311429977417,1,1,4639,289.938
1.421288013458252,1,1,4597,287.312
1.4252912998199463,1,1,4582,286.375
1.4293382167816162,1,1,4600,287.500
1.4333224296569824,1,1,4611,288.188
1.4372894763946533,1,1,4639,289.938
1.4412851333618164,1,1,4601,287.562
1.4452836513519287,1,1,4589,286.812
1.4493231773376465,1,1,4591,286.938
1.4533226490020752,1,1,4607,287.938
1.457289695739746,1,1,4644,290.250
1.4612853527069092,1,1,4606,287.875
1.4652924537658691,1,1,4582,286.375
1.4693236351013184,1,1,4593,287.062
1.4733285903930664,1,1,4608,288.000
1.47743821144104,1,1,4640,290.000
1.4812507629394531,1,1,4604,287.750
1.4852464199066162,1,1,4583,286.438
1.4892613887786865,1,1,4588,286.750
1.493281602859497,1,1,4603,287.688
1.497248888015747,1,1,4649,290.562
1.5012474060058594,1,1,4597,287.312
1.5052475929260254,1,1,4582,286.375
1.5092806816101074,1,1,4597,287.312
1.513249397277832,1,1,4607,287.938
1.5172474384307861,1,1,4647,290.438
1.5212483406066895,1,1,4602,287.625
1.525247573852539,1,1,4587,286.688
1.5292797088623047,1,1,4595,287.188
1.5332469940185547,1,1,4606,287.875
1.5372469425201416,1,1,4651,290.688
1.541250228881836,1,1,4596,287.250
1.545250654220581,1,1,4578,286.125
1.5492725372314453,1,1,4595,287.188
1.5532479286193848,1,1,4608,288.000
1.5572495460510254,1,1,4657,291.062
1.5612506866455078,1,1,4600,287.500
1.565244197845459,1,1,4583,286.438
1.5692574977874756,1,1,4588,286.750
1.5732498168945312,1,1,4600,287.500
1.5773341655731201,1,1,4649,290.562
1.5812914371490479,1,1,4600,287.500
1.585289478302002,1,1,4587,286.688
1.5893166065216064,1,1,4590,286.875
1.5933198928833008,1,1,4602,287.625
1.5972867012023926,1,1,4648,290.500
1.6012842655181885,1,1,4603,287.688
1.6052796840667725,1,1,4585,286.562
1.609311580657959,1,1,4590,286.875
1.6133170127868652,1,1,4601,287.562
1.6172850131988525,1,1,4650,290.625
1.6212832927703857,1,1,4605,287.812
1.6252882480621338,1,1,4581,286.312
1.6292963027954102,1,1,4586,286.625
1.6333191394805908,1,1,4605,287.812
1.6372835636138916,1,1,4646,290.375
1.641284465789795,1,1,4608,288.000
1.6452722549438477,1,1,4579,286.188
1.6492981910705566,1,1,4591,286.938
1.6533172130584717,1,1,4605,287.812
1.657285213470459,1,1,4638,289.875
1.6612818241119385,1,1,4601,287.562
1.6652860641479492,1,1,4582,286.375
1.6693181991577148,1,1,4588,286.750
1.6733119487762451,1,1,4600,287.500
1.6772844791412354,1,1,4638,289.875
1.6812493801116943,1,1,4607,287.938
1.685244083404541,1,1,4582,286.375
1.6892726421356201,1,1,4595,287.188
1.693242073059082,1,1,4607,287.938
1.697234869003296,1,1,4650,290.625
1.7012321949005127,1,1,4592,287.000
1.7052466869354248,1,1,4595,287.188
1.7092580795288086,1,1,4601,287.562
1.7132446765899658,1,1,4643,290.188
1.7172446250915527,1,1,4607,287.938
1.7212440967559814,1,1,4593,287.062
1.7252445220947266,1,1,4594,287.125
1.7292709350585938,1,1,4601,287.562
1.733245611190796,1,1,4642,290.125
1.7372446060180664,1,1,4607,287.938
1.741246223449707,1,1,4598,287.375
1.745244026184082,1,1,4581,286.312
1.7492692470550537,1,1,4601,287.562
1.753246784210205,1,1,4644,290.250
1.7572462558746338,1,1,4610,288.125
1.7612438201904297,1,1,4590,286.875
1.7652409076690674,1,1,4583,286.438
1.7692677974700928,1,1,4594,287.125
1.7732477188110352,1,1,4650,290.625
1.7773313522338867,1,1,4608,288.000
1.7812867164611816,1,1,4600,287.500
1.785280704498291,1,1,4587,286.688
1.7892894744873047,1,1,4605,287.812
1.7933175563812256,1,1,4643,290.188
1.7972838878631592,1,1,4618,288.625
1.8012802600860596,1,1,4597,287.312
1.8052773475646973,1,1,4592,287.000
1.809309482574463,1,1,4611,288.188
1.8133134841918945,1,1,4644,290.250
1.817281723022461,1,1,4612,288.250
1.8212783336639404,1,1,4599,287.438
1.825282335281372,1,1,4582,286.375
1.8293144702911377,1,1,4594,287.125
1.833310604095459,1,1,4645,290.312
1.8372793197631836,1,1,4618,288.625
1.8412792682647705,1,1,4600,287.500
1.8455297946929932,1,1,4589,286.812
1.8495502471923828,1,1,4603,287.688
1.8533649444580078,1,1,4631,289.438
1.8572847843170166,1,1,4620,288.750
1.8612828254699707,1,1,4598,287.375
1.8652760982513428,1,1,4587,286.688
1.869279146194458,1,1,4601,287.562
1.8733229637145996,1,1,4634,289.625
1.877392053604126,1,1,4619,288.688
1.88124680519104,1,1,4603,287.688
1.8852462768554688,1,1,4584,286.500
1.8892760276794434,1,1,4594,287.125
1.893239974975586,1,1,4637,289.812
1.8972358703613281,1,1,4625,289.062
1.9012317657470703,1,1,4600,287.500
1.9052424430847168,1,1,4589,286.812
1.9093437194824219,1,1,4603,287.688
1.9132463932037354,1,1,4634,289.625
1.9172415733337402,1,1,4620,288.750
1.921241283416748,1,1,4602,287.625
1.9252424240112305,1,1,4578,286.125
1.929253339767456,1,1,4594,287.125
1.9332435131072998,1,1,4633,289.562
1.9372429847717285,1,1,4618,288.625
1.94124436378479,1,1,4605,287.812
1.945246934890747,1,1,4584,286.500
1.949256420135498,1,1,4601,287.562
1.9532389640808105,1,1,4631,289.438
1.9572439193725586,1,1,4629,289.312
1.9612417221069336,1,1,4603,287.688
1.9652435779571533,1,1,4584,286.500
1.9692714214324951,1,1,4601,287.562
1.97324538230896,1,1,4628,289.250
1.9773368835449219,1,1,4622,288.875
1.98128342628479,1,1,4602,287.625
1.9852845668792725,1,1,4582,286.375
1.989311695098877,1,1,4601,287.562
1.9933221340179443,1,1,4623,288.938
1.9972832202911377,1,1,4629,289.312
2.0012805461883545,1,1,4598,287.375
2.005275011062622,1,1,4576,286.000
2.01594877243042,1,1,4628,289.250
2.017258644104004,1,1,4628,289.250
2.0212979316711426,1,1,4600,287.500
2.0252914428710938,1,1,4579,286.188
2.029294013977051,1,1,4599,287.438
2.0333240032196045,1,1,4630,289.375
2.0372796058654785,1,1,4629,289.312
2.041278600692749,1,1,4594,287.125
2.045274257659912,1,1,4581,286.312
2.049313545227051,1,1,4598,287.375
2.053316354751587,1,1,4621,288.812
2.0572779178619385,1,1,4634,289.625
2.0612761974334717,1,1,4600,287.500
2.0652787685394287,1,1,4579,286.188
2.0693092346191406,1,1,4593,287.062
2.0733108520507812,1,1,4620,288.750
2.0774059295654297,1,1,4637,289.812
2.0812461376190186,1,1,4591,286.938
2.085238456726074,1,1,4583,286.438
2.0892488956451416,1,1,4595,287.188
2.0932435989379883,1,1,4618,288.625
2.0972392559051514,1,1,4636,289.750
2.101238250732422,1,1,4595,287.188
2.1052446365356445,1,1,4584,286.500
2.109266996383667,1,1,4593,287.062
2.113241195678711,1,1,4620,288.750
2.1172378063201904,1,1,4636,289.750
2.1212387084960938,1,1,4603,287.688
2.1252331733703613,1,1,4577,286.062
2.1292543411254883,1,1,4595,287.188
2.1332385540008545,1,1,4622,288.875
2.1372408866882324,1,1,4641,290.062
2.141239881515503,1,1,4596,287.250
2.1452364921569824,1,1,4581,286.312
2.149249315261841,1,1,4588,286.750
2.1532373428344727,1,1,4615,288.438
2.1572389602661133,1,1,4646,290.375
2.161238670349121,1,1,4593,287.062
2.1652371883392334,1,1,4582,286.375
2.169248104095459,1,1,4593,287.062
2.1732423305511475,1,1,4620,288.750
2.1773324012756348,1,1,4646,290.375
2.1812784671783447,1,1,4598,287.375
2.1852784156799316,1,1,4575,285.938
2.1893081665039062,1,1,4595,287.188
2.19331693649292,1,1,4601,287.562
2.1972758769989014,1,1,4643,290.188
2.2012739181518555,1,1,4598,287.375
2.205268144607544,1,1,4577,286.062
2.2092909812927246,1,1,4595,287.188
2.213266134262085,1,1,4608,288.000
2.2172629833221436,1,1,4647,290.438
2.2212765216827393,1,1,4610,288.125
2.2252748012542725,1,1,4580,286.250
2.2292845249176025,1,1,4591,286.938
2.233306646347046,1,1,4608,288.000
2.2372775077819824,1,1,4647,290.438
2.241274118423462,1,1,4602,287.625
2.2452712059020996,1,1,4589,286.812
2.2493033409118652,1,1,4593,287.062
2.2533071041107178,1,1,4607,287.938
2.2572765350341797,1,1,4646,290.375
2.2612733840942383,1,1,4590,286.875
2.2652735710144043,1,1,4596,287.250
2.2693068981170654,1,1,4599,287.438
2.273313045501709,1,1,4650,290.625
2.2772793769836426,1,1,4600,287.500
2.281243324279785,1,1,4592,287.000
2.285234212875366,1,1,4589,286.812
2.2892634868621826,1,1,4610,288.125
2.293240785598755,1,1,4648,290.500
2.2972404956817627,1,1,4605,287.812
2.3012351989746094,1,1,4588,286.750
2.3052377700805664,1,1,4597,287.312
2.309248924255371,1,1,4608,288.000
2.3132405281066895,1,1,4644,290.250
2.3172366619110107,1,1,4601,287.562
2.321237325668335,1,1,4590,286.875
2.3252360820770264,1,1,4591,286.938
2.32926344871521,1,1,4602,287.625
2.333238363265991,1,1,4651,290.688
2.337238311767578,1,1,4601,287.562
2.341237783432007,1,1,4589,286.812
2.345238208770752,1,1,4592,287.000
2.349260091781616,1,1,4602,287.625
2.3532373905181885,1,1,4650,290.625
2.3572375774383545,1,1,4600,287.500
2.361236095428467,1,1,4595,287.188
2.3652279376983643,1,1,4588,286.750
2.3692498207092285,1,1,4601,287.562
2.373236656188965,1,1,4645,290.312
2.3773200511932373,1,1,4605,287.812
2.3812782764434814,1,1,4597,287.312
2.3852767944335938,1,1,4585,286.562
2.3892853260040283,1,1,4608,288.000
2.3933019638061523,1,1,4651,290.688
2.397263288497925,1,1,4603,287.688
2.4012608528137207,1,1,4593,287.062
2.4052700996398926,1,1,4590,286.875
2.4093129634857178,1,1,4601,287.562
2.4133098125457764,1,1,4650,290.625
2.4172751903533936,1,1,4608,288.000
2.4212770462036133,1,1,4599,287.438
2.4252774715423584,1,1,4583,286.438
2.4293038845062256,1,1,4603,287.688
2.43330717086792,1,1,4644,290.250
2.4372756481170654,1,1,4605,287.812
2.4412732124328613,1,1,4595,287.188
2.445265531539917,1,1,4581,286.312
2.449287176132202,1,1,4606,287.875
2.453277349472046,1,1,4640,290.000
2.4572741985321045,1,1,4615,288.438
2.461273431777954,1,1,4599,287.438
2.4652743339538574,1,1,4590,286.875
2.4692883491516113,1,1,4598,287.375
2.4733057022094727,1,1,4641,290.062
2.4774043560028076,1,1,4616,288.500
2.4812395572662354,1,1,4603,287.688
2.485234498977661,1,1,4581,286.312
2.489262819290161,1,1,4607,287.938
2.4932398796081543,1,1,4648,290.500
2.49723482131958,1,1,4614,288.375
2.501235008239746,1,1,4599,287.438
2.5052361488342285,1,1,4583,286.438
2.5092613697052,1,1,4598,287.375
2.5132365226745605,1,1,4645,290.312
2.5172362327575684,1,1,4619,288.688
2.521235942840576,1,1,4598,287.375
2.5252339839935303,1,1,4585,286.562
2.529261589050293,1,1,4597,287.312
2.5332374572753906,1,1,4634,289.625
2.5372345447540283,1,1,4613,288.312
2.5412347316741943,1,1,4594,287.125
2.5452358722686768,1,1,4588,286.750
2.549245595932007,1,1,4602,287.625
2.553236246109009,1,1,4639,289.938
2.5572361946105957,1,1,4619,288.688
2.5612335205078125,1,1,4598,287.375
2.565230131149292,1,1,4588,286.750
2.5692636966705322,1,1,4605,287.812
2.573235034942627,1,1,4633,289.562
2.5773165225982666,1,1,4623,288.938
2.581277370452881,1,1,4597,287.312
2.5852746963500977,1,1,4585,286.562
2.5893008708953857,1,1,4601,287.562
2.5932772159576416,1,1,4631,289.438
2.5972747802734375,1,1,4626,289.125
2.6012730598449707,1,1,4592,287.000
2.605266809463501,1,1,4586,286.625
2.609290361404419,1,1,4598,287.375
2.6133182048797607,1,1,4635,289.688
2.6172637939453125,1,1,4626,289.125
2.621260643005371,1,1,4599,287.438
2.6252706050872803,1,1,4583,286.438
2.62930965423584,1,1,4602,287.625
2.633265972137451,1,1,4626,289.125
2.6374452114105225,1,1,4628,289.250
2.6414482593536377,1,1,4600,287.500
2.6452972888946533,1,1,4578,286.125
2.649298906326294,1,1,4591,286.938
2.6534392833709717,1,1,4627,289.188
2.6572766304016113,1,1,4631,289.438
2.6613149642944336,1,1,4593,287.062
2.6652684211730957,1,1,4589,286.812
2.6692769527435303,1,1,4593,287.062
2.6732614040374756,1,1,4636,289.750
2.677337408065796,1,1,4630,289.375
2.6812245845794678,1,1,4595,287.188
2.6852238178253174,1,1,4589,286.812
2.6892576217651367,1,1,4593,287.062
2.6932287216186523,1,1,4627,289.188
2.697225332260132,1,1,4630,289.375
2.7012200355529785,1,1,4591,286.938
2.7052249908447266,1,1,4586,286.625
2.70925235748291,1,1,4593,287.062
2.7132246494293213,1,1,4628,289.250
2.7172205448150635,1,1,4636,289.750
2.7212202548980713,1,1,4600,287.500
2.7252345085144043,1,1,4582,286.375
2.7292587757110596,1,1,4596,287.250
2.733241319656372,1,1,4626,289.125
2.737234115600586,1,1,4644,290.250
2.741234302520752,1,1,4593,287.062
2.745234251022339,1,1,4580,286.250
2.7492432594299316,1,1,4603,287.688
2.7532382011413574,1,1,4626,289.125
2.757232427597046,1,1,4636,289.750
2.7612321376800537,1,1,4595,287.188
2.7652297019958496,1,1,4587,286.688
2.7692625522613525,1,1,4602,287.625
2.773242235183716,1,1,4617,288.562
2.777374267578125,1,1,4640,290.000
2.7812867164611816,1,1,4597,287.312
2.785280227661133,1,1,4581,286.312
2.789276361465454,1,1,4595,287.188
2.7932724952697754,1,1,4609,288.062
2.7972896099090576,1,1,4631,289.438
2.801274299621582,1,1,4601,287.562
2.8052756786346436,1,1,4580,286.250
2.8092758655548096,1,1,4596,287.250
2.8132758140563965,1,1,4611,288.188
2.8173153400421143,1,1,4637,289.812
2.8212740421295166,1,1,4598,287.375
2.82527756690979,1,1,4598,287.375
2.8292760848999023,1,1,4608,288.000
2.8332717418670654,1,1,4638,289.875
2.837308168411255,1,1,4607,287.938
2.8412747383117676,1,1,4583,286.438
2.845517873764038,1,1,4596,287.250
2.849510669708252,1,1,4611,288.188
2.853360414505005,1,1,4637,289.812
2.85732102394104,1,1,4604,287.750
2.861276388168335,1,1,4585,286.562
2.8652758598327637,1,1,4594,287.125
2.8692727088928223,1,1,4610,288.125
2.8732728958129883,1,1,4640,290.000
2.8773458003997803,1,1,4601,287.562
2.8812382221221924,1,1,4588,286.750
2.885230302810669,1,1,4594,287.125
2.8892247676849365,1,1,4607,287.938
2.8932321071624756,1,1,4644,290.250
2.8972442150115967,1,1,4607,287.938
2.9012351036071777,1,1,4585,286.562
2.9052376747131348,1,1,4591,286.938
2.9092423915863037,1,1,4608,288.000
2.9132349491119385,1,1,4648,290.500
2.9172728061676025,1,1,4604,287.750
2.921234130859375,1,1,4590,286.875
2.925229072570801,1,1,4594,287.125
2.9292232990264893,1,1,4615,288.438
2.933229684829712,1,1,4653,290.812
2.937269926071167,1,1,4605,287.812
2.941235303878784,1,1,4596,287.250
2.945237874984741,1,1,4588,286.750
2.9492342472076416,1,1,4610,288.125
2.9532344341278076,1,1,4642,290.125
2.957270860671997,1,1,4594,287.125
2.9612340927124023,1,1,4597,287.312
2.9652388095855713,1,1,4590,286.875
2.969233512878418,1,1,4610,288.125
2.973234176635742,1,1,4651,290.688
2.977328300476074,1,1,4605,287.812
2.98126482963562,1,1,4594,287.125
2.9852731227874756,1,1,4597,287.312
2.989274740219116,1,1,4602,287.625
2.993269443511963,1,1,4645,290.312
2.997283935546875,1,1,4603,287.688
3.0012712478637695,1,1,4590,286.875
3.0052685737609863,1,1,4590,286.875
3.0092661380767822,1,1,4601,287.562
3.0201191902160645,1,1,4582,286.375
3.0215442180633545,1,1,4582,286.375
3.025296449661255,1,1,4595,287.188
3.0292725563049316,1,1,4602,287.625
3.033268690109253,1,1,4652,290.750
3.037313938140869,1,1,4608,288.000
3.041271209716797,1,1,4590,286.875
3.0452702045440674,1,1,4590,286.875
3.0492711067199707,1,1,4600,287.500
3.0532729625701904,1,1,4651,290.688
3.057309150695801,1,1,4601,287.562
3.0612711906433105,1,1,4597,287.312
3.0652756690979004,1,1,4588,286.750
3.0692713260650635,1,1,4606,287.875
3.0732693672180176,1,1,4650,290.625
3.0773754119873047,1,1,4610,288.125
3.0812363624572754,1,1,4590,286.875
3.0852279663085938,1,1,4587,286.688
3.0892200469970703,1,1,4599,287.438
3.093277931213379,1,1,4651,290.688
3.097249746322632,1,1,4609,288.062
3.1012344360351562,1,1,4588,286.750
3.105236053466797,1,1,4593,287.062
3.10923171043396,1,1,4603,287.688
3.1132335662841797,1,1,4645,290.312
3.117267608642578,1,1,4605,287.812
3.1212306022644043,1,1,4599,287.438
3.125232458114624,1,1,4588,286.750
3.129232168197632,1,1,4598,287.375
3.1332345008850098,1,1,4640,290.000
3.13726544380188,1,1,4610,288.125
3.1412336826324463,1,1,4595,287.188
3.1452274322509766,1,1,4587,286.688
3.149221420288086,1,1,4599,287.438
3.1532270908355713,1,1,4652,290.750
3.1572697162628174,1,1,4614,288.375
3.1612327098846436,1,1,4592,287.000
3.165224313735962,1,1,4588,286.750
3.1692187786102295,1,1,4596,287.250
3.1732261180877686,1,1,4640,290.000
3.177347183227539,1,1,4618,288.625
3.1812727451324463,1,1,4589,286.812
3.1852734088897705,1,1,4586,286.625
3.1892707347869873,1,1,4600,287.500
3.193267345428467,1,1,4644,290.250
3.197303295135498,1,1,4617,288.562
3.201268196105957,1,1,4595,287.188
3.205267906188965,1,1,4587,286.688
3.2092690467834473,1,1,4595,287.188
3.2132620811462402,1,1,4638,289.875
3.217294692993164,1,1,4617,288.562
3.221257448196411,1,1,4596,287.250
3.2252581119537354,1,1,4589,286.812
3.229264974594116,1,1,4596,287.250
3.2332684993743896,1,1,4639,289.938
3.237291097640991,1,1,4618,288.625
3.2412965297698975,1,1,4601,287.562
3.2452633380889893,1,1,4589,286.812
3.2492566108703613,1,1,4603,287.688
3.2532670497894287,1,1,4642,290.125
3.257457971572876,1,1,4619,288.688
3.261420488357544,1,1,4594,287.125
3.265291452407837,1,1,4581,286.312
3.269261121749878,1,1,4593,287.062
3.273263454437256,1,1,4637,289.812
3.277435779571533,1,1,4618,288.625
3.281243085861206,1,1,4598,287.375
3.2852253913879395,1,1,4589,286.812
3.2892227172851562,1,1,4603,287.688
3.2932240962982178,1,1,4641,290.062
3.297247886657715,1,1,4617,288.562
3.301222085952759,1,1,4596,287.250
3.30522084236145,1,1,4587,286.688
3.3092200756073,1,1,4603,287.688
3.313225507736206,1,1,4640,290.000
3.317270040512085,1,1,4624,289.000
3.321232318878174,1,1,4591,286.938
3.3252267837524414,1,1,4583,286.438
3.3292200565338135,1,1,4598,287.375
3.3332273960113525,1,1,4631,289.438
3.337268829345703,1,1,4626,289.125
3.341229200363159,1,1,4591,286.938
3.345231056213379,1,1,4585,286.562
3.349226474761963,1,1,4598,287.375
3.353228807449341,1,1,4633,289.562
3.3572676181793213,1,1,4627,289.188
3.3612284660339355,1,1,4598,287.375
3.3652262687683105,1,1,4589,286.812
3.369227170944214,1,1,4592,287.000
3.373234272003174,1,1,4622,288.875
3.377329111099243,1,1,4625,289.062
3.381269693374634,1,1,4593,287.062
3.3852717876434326,1,1,4587,286.688
3.3892664909362793,1,1,4628,289.250
3.393258810043335,1,1,4625,289.062
3.397270917892456,1,1,4596,287.250
3.4012537002563477,1,1,4589,286.812
3.4052536487579346,1,1,4590,286.875
3.4092535972595215,1,1,4634,289.625
3.413262128829956,1,1,4634,289.625
3.417307138442993,1,1,4596,287.250
3.421264410018921,1,1,4593,287.062
3.4252705574035645,1,1,4592,287.000
3.429265022277832,1,1,4621,288.812
3.433263063430786,1,1,4628,289.250
3.437304735183716,1,1,4598,287.375
3.4412641525268555,1,1,4585,286.562
3.4452643394470215,1,1,4598,287.375
3.44926381111145,1,1,4627,289.188
3.453268527984619,1,1,4631,289.438
3.4573075771331787,1,1,4599,287.438
3.4612624645233154,1,1,4588,286.750
3.4652724266052246,1,1,4594,287.125
3.4692656993865967,1,1,4618,288.625
3.4732604026794434,1,1,4634,289.625
3.4773778915405273,1,1,4595,287.188
3.4812300205230713,1,1,4591,286.938
3.4852256774902344,1,1,4594,287.125
3.489222288131714,1,1,4625,289.062
3.493232488632202,1,1,4633,289.562
3.49723744392395,1,1,4598,287.375
3.5012240409851074,1,1,4589,286.812
3.5052285194396973,1,1,4595,287.188
3.509227991104126,1,1,4620,288.750
3.513225555419922,1,1,4632,289.500
3.5172603130340576,1,1,4600,287.500
3.5212247371673584,1,1,4589,286.812
3.525225877761841,1,1,4593,287.062
3.5292246341705322,1,1,4614,288.375
3.5332281589508057,1,1,4632,289.500
3.5372602939605713,1,1,4596,287.250
3.5412259101867676,1,1,4589,286.812
3.545227527618408,1,1,4591,286.938
3.549222707748413,1,1,4617,288.562
3.5532283782958984,1,1,4635,289.688
3.557262897491455,1,1,4598,287.375
3.5612244606018066,1,1,4586,286.625
3.56522536277771,1,1,4598,287.375
3.5692219734191895,1,1,4611,288.188
3.573223114013672,1,1,4635,289.688
3.5773046016693115,1,1,4598,287.375
3.5812647342681885,1,1,4596,287.250
3.5852677822113037,1,1,4600,287.500
3.589261054992676,1,1,4611,288.188
3.593261480331421,1,1,4639,289.938
3.5972752571105957,1,1,4603,287.688
3.6012628078460693,1,1,4584,286.500
3.605259895324707,1,1,4596,287.250
3.6092634201049805,1,1,4614,288.375
3.613260507583618,1,1,4635,289.688
3.6172969341278076,1,1,4605,287.812
3.621260404586792,1,1,4584,286.500
3.62526535987854,1,1,4597,287.312
3.6292612552642822,1,1,4605,287.812
3.633260488510132,1,1,4645,290.312
3.637298107147217,1,1,4602,287.625
3.641265869140625,1,1,4587,286.688
3.6452553272247314,1,1,4591,286.938
3.6492488384246826,1,1,4611,288.188
3.653254508972168,1,1,4646,290.375
3.6572983264923096,1,1,4610,288.125
3.6612608432769775,1,1,4587,286.688
3.6652638912200928,1,1,4586,286.625
3.6692581176757812,1,1,4602,287.625
3.673258066177368,1,1,4640,290.000
3.6773841381073,1,1,4600,287.500
3.6812260150909424,1,1,4588,286.750
3.6852245330810547,1,1,4595,287.188
3.6892223358154297,1,1,4605,287.812
3.6932284832000732,1,1,4643,290.188
3.6972336769104004,1,1,4606,287.875
3.701221466064453,1,1,4591,286.938
3.7052268981933594,1,1,4591,286.938
3.7092249393463135,1,1,4597,287.312
3.7132222652435303,1,1,4651,290.688
3.717259407043457,1,1,4600,287.500
3.721222162246704,1,1,4586,286.625
3.725224018096924,1,1,4585,286.562
3.7292191982269287,1,1,4600,287.500
3.7332229614257812,1,1,4655,290.938
3.7372517585754395,1,1,4603,287.688
3.741213083267212,1,1,4585,286.562
3.7452242374420166,1,1,4587,286.688
3.749222755432129,1,1,4610,288.125
3.753225326538086,1,1,4652,290.750
3.7572593688964844,1,1,4597,287.312
3.761221408843994,1,1,4589,286.812
3.7652201652526855,1,1,4586,286.625
3.7692208290100098,1,1,4605,287.812
3.773219585418701,1,1,4651,290.688
3.7772955894470215,1,1,4603,287.688
3.781263828277588,1,1,4587,286.688
3.7852678298950195,1,1,4592,287.000
3.7892565727233887,1,1,4606,287.875
3.7932589054107666,1,1,4647,290.438
3.7972731590270996,1,1,4606,287.875
3.8012590408325195,1,1,4585,286.562
3.805257797241211,1,1,4595,287.188
3.809257984161377,1,1,4612,288.250
3.8132598400115967,1,1,4649,290.562
3.8172972202301025,1,1,4610,288.125
3.8212573528289795,1,1,4588,286.750
3.8252601623535156,1,1,4586,286.625
3.8292577266693115,1,1,4601,287.562
3.833256959915161,1,1,4657,291.062
3.8372952938079834,1,1,4608,288.000
3.841259717941284,1,1,4589,286.812
3.8455209732055664,1,1,4588,286.750
3.849513292312622,1,1,4603,287.688
3.8533637523651123,1,1,4647,290.438
3.8573098182678223,1,1,4610,288.125
3.861262083053589,1,1,4592,287.000
3.865255355834961,1,1,4595,287.188
3.869245767593384,1,1,4606,287.875
3.8732545375823975,1,1,4643,290.188
3.8774118423461914,1,1,4615,288.438
3.8812246322631836,1,1,4588,286.750
3.885225296020508,1,1,4590,286.875
3.8892202377319336,1,1,4596,287.250
3.8932230472564697,1,1,4643,290.188
3.897225856781006,1,1,4610,288.125
3.901212453842163,1,1,4592,287.000
3.905223846435547,1,1,4588,286.750
3.9092214107513428,1,1,4597,287.312
3.9132261276245117,1,1,4647,290.438
3.917259931564331,1,1,4614,288.375
3.921220302581787,1,1,4588,286.750
3.9252219200134277,1,1,4585,286.562
3.9292187690734863,1,1,4603,287.688
3.933224678039551,1,1,4638,289.875
3.937260389328003,1,1,4615,288.438
3.94122052192688,1,1,4586,286.625
3.945220947265625,1,1,4586,286.625
3.9492194652557373,1,1,4597,287.312
3.9532244205474854,1,1,4646,290.375
3.957257032394409,1,1,4598,287.375
3.9612207412719727,1,1,4581,286.312
3.965226411819458,1,1,4595,287.188
3.9692163467407227,1,1,4642,290.125
3.9732248783111572,1,1,4611,288.188
3.977303981781006,1,1,4599,287.438
3.98126220703125,1,1,4585,286.562
3.9852652549743652,1,1,4602,287.625
3.9892561435699463,1,1,4643,290.188
3.9932541847229004,1,1,4617,288.562
3.9972643852233887,1,1,4595,287.188
4.0012452602386475,1,1,4588,286.750
4.005259037017822,1,1,4599,287.438
4.009257078170776,1,1,4639,289.938
4.013260841369629,1,1,4619,288.688
4.0240159034729,1,1,4596,287.250
4.025350570678711,1,1,4600,287.500
4.029271364212036,1,1,4635,289.688
4.033256530761719,1,1,4622,288.875
4.037301778793335,1,1,4593,287.062
4.041256904602051,1,1,4589,286.812
4.0452611446380615,1,1,4601,287.562
4.04925537109375,1,1,4631,289.438
4.05326247215271,1,1,4618,288.625
4.057295083999634,1,1,4607,287.938
4.061257600784302,1,1,4591,286.938
4.0652594566345215,1,1,4594,287.125
4.069255352020264,1,1,4635,289.688
4.073255300521851,1,1,4622,288.875
4.077369213104248,1,1,4598,287.375
4.0812225341796875,1,1,4586,286.625
4.0852210521698,1,1,4596,287.250
4.089217662811279,1,1,4632,289.500
4.093219995498657,1,1,4618,288.625
4.097227096557617,1,1,4601,287.562
4.101215600967407,1,1,4591,286.938
4.105219602584839,1,1,4594,287.125
4.109217643737793,1,1,4625,289.062
4.113216161727905,1,1,4622,288.875
4.117249488830566,1,1,4593,287.062
4.121217489242554,1,1,4586,286.625
4.12522029876709,1,1,4594,287.125
4.12921667098999,1,1,4629,289.312
4.133220195770264,1,1,4631,289.438
4.137253522872925,1,1,4610,288.125
4.141219615936279,1,1,4593,287.062
4.145214796066284,1,1,4594,287.125
4.149205446243286,1,1,4620,288.750
4.153212308883667,1,1,4624,289.000
4.157253980636597,1,1,4605,287.812
4.161217212677002,1,1,4580,286.250
4.165217638015747,1,1,4593,287.062
4.169215679168701,1,1,4617,288.562
4.173221588134766,1,1,4630,289.375
4.177337646484375,1,1,4600,287.500
4.181256294250488,1,1,4580,286.250
4.1852593421936035,1,1,4599,287.438
4.189252138137817,1,1,4623,288.938
4.193252325057983,1,1,4632,289.500
4.1972668170928955,1,1,4610,288.125
4.201256036758423,1,1,4582,286.375
4.205250263214111,1,1,4591,286.938
4.209239482879639,1,1,4623,288.938
4.213249921798706,1,1,4635,289.688
4.217295408248901,1,1,4604,287.750
4.221257448196411,1,1,4585,286.562
4.225250720977783,1,1,4591,286.938
4.2292397022247314,1,1,4618,288.625
4.233246564865112,1,1,4637,289.812
4.2372941970825195,1,1,4598,287.375
4.24125599861145,1,1,4579,286.188
4.245247840881348,1,1,4595,287.188
4.24924898147583,1,1,4620,288.750
4.253250360488892,1,1,4637,289.812
4.257293939590454,1,1,4593,287.062
4.261252164840698,1,1,4579,286.188
4.265255689620972,1,1,4595,287.188
4.269254684448242,1,1,4618,288.625
4.273255109786987,1,1,4634,289.625
4.2773449420928955,1,1,4601,287.562
4.281223297119141,1,1,4579,286.188
4.285218954086304,1,1,4592,287.000
4.289214611053467,1,1,4611,288.188
4.293216705322266,1,1,4637,289.812
4.297255516052246,1,1,4602,287.625
4.301213264465332,1,1,4576,286.000
4.305212497711182,1,1,4593,287.062
4.309216022491455,1,1,4615,288.438
4.313212871551514,1,1,4647,290.438
4.317254304885864,1,1,4601,287.562
4.321227073669434,1,1,4582,286.375
4.325217962265015,1,1,4589,286.812
4.32921290397644,1,1,4609,288.062
4.3332133293151855,1,1,4651,290.688
4.339766025543213,1,1,4582,286.375
4.341246604919434,1,1,4582,286.375
4.345221757888794,1,1,4601,287.562
4.3492186069488525,1,1,4611,288.188
4.35321307182312,1,1,4647,290.438
4.357290029525757,1,1,4600,287.500
4.361215829849243,1,1,4584,286.500
4.365206480026245,1,1,4591,286.938
4.369239568710327,1,1,4611,288.188
4.373207330703735,1,1,4649,290.562
4.377315282821655,1,1,4603,287.688
4.381243944168091,1,1,4580,286.250
4.3852455615997314,1,1,4591,286.938
4.389274597167969,1,1,4606,287.875
4.393249034881592,1,1,4648,290.500
4.3972508907318115,1,1,4600,287.500
4.401252746582031,1,1,4580,286.250
4.405242443084717,1,1,4593,287.062
4.40925145149231,1,1,4614,288.375
4.413249969482422,1,1,4654,290.875
4.417250394821167,1,1,4605,287.812
4.421252250671387,1,1,4578,286.125
4.4252495765686035,1,1,4592,287.000
4.429283380508423,1,1,4609,288.062
4.433251619338989,1,1,4651,290.688
4.437251329421997,1,1,4605,287.812
4.44124960899353,1,1,4587,286.688
4.445242643356323,1,1,4588,286.750
4.449264764785767,1,1,4607,287.938
4.453249216079712,1,1,4655,290.938
4.4572484493255615,1,1,4612,288.250
4.461251735687256,1,1,4583,286.438
4.465254068374634,1,1,4595,287.188
4.4692604541778564,1,1,4602,287.625
4.473253011703491,1,1,4651,290.688
4.477312803268433,1,1,4600,287.500
4.481213092803955,1,1,4577,286.062
4.485214948654175,1,1,4589,286.812
4.489242076873779,1,1,4603,287.688
4.49321985244751,1,1,4642,290.125
4.497210502624512,1,1,4607,287.938
4.5012123584747314,1,1,4584,286.500
4.50521183013916,1,1,4592,287.000
4.509239673614502,1,1,4604,287.750
4.513215065002441,1,1,4647,290.438
4.517209768295288,1,1,4603,287.688
4.521209955215454,1,1,4584,286.500
4.52520489692688,1,1,4604,287.750
4.529222249984741,1,1,4645,290.312
4.533212900161743,1,1,4607,287.938
4.5372138023376465,1,1,4590,286.875
4.541210412979126,1,1,4585,286.562
4.545212030410767,1,1,4603,287.688
4.54922080039978,1,1,4643,290.188
4.553217649459839,1,1,4609,288.062
4.557210922241211,1,1,4594,287.125
4.561211347579956,1,1,4588,286.750
4.565211296081543,1,1,4610,288.125
4.56923508644104,1,1,4646,290.375
4.573216438293457,1,1,4605,287.812
4.5772926807403564,1,1,4589,286.812
4.581253528594971,1,1,4580,286.250
4.585248947143555,1,1,4602,287.625
4.589282751083374,1,1,4649,290.562
4.593257904052734,1,1,4616,288.500
4.597245454788208,1,1,4596,287.250
4.601248264312744,1,1,4583,286.438
4.605248928070068,1,1,4597,287.312
4.609258413314819,1,1,4647,290.438
4.613252639770508,1,1,4613,288.312
4.6172449588775635,1,1,4590,286.875
4.6212475299835205,1,1,4586,286.625
4.625247240066528,1,1,4600,287.500
4.629276990890503,1,1,4646,290.375
4.633248805999756,1,1,4619,288.688
4.637246131896973,1,1,4597,287.312
4.6412458419799805,1,1,4587,286.688
4.645240783691406,1,1,4596,287.250
4.64926290512085,1,1,4640,290.000
4.653245210647583,1,1,4608,288.000
4.657247066497803,1,1,4594,287.125
4.661245822906494,1,1,4585,286.562
4.665247678756714,1,1,4599,287.438
4.6692914962768555,1,1,4639,289.938
4.673251152038574,1,1,4622,288.875
4.677367448806763,1,1,4604,287.750
4.681211471557617,1,1,4580,286.250
4.685211420059204,1,1,4598,287.375
4.689222574234009,1,1,4646,290.375
4.693216562271118,1,1,4618,288.625
4.697208642959595,1,1,4592,287.000
4.701207876205444,1,1,4585,286.562
4.705209970474243,1,1,4594,287.125
4.709247827529907,1,1,4639,289.938
4.71321177482605,1,1,4619,288.688
4.717210054397583,1,1,4602,287.625
4.7212066650390625,1,1,4582,286.375
4.725205898284912,1,1,4594,287.125
4.729220151901245,1,1,4642,290.125
4.733215093612671,1,1,4615,288.438
4.737207651138306,1,1,4600,287.500
4.741205930709839,1,1,4585,286.562
4.745208024978638,1,1,4601,287.562
4.749248027801514,1,1,4633,289.562
4.753211498260498,1,1,4615,288.438
4.757197618484497,1,1,4598,287.375
4.7611963748931885,1,1,4585,286.562
4.7652060985565186,1,1,4602,287.625
4.769221782684326,1,1,4633,289.562
4.773207664489746,1,1,4624,289.000
4.777287006378174,1,1,4596,287.250
4.78124737739563,1,1,4582,286.375
4.785247087478638,1,1,4597,287.312
4.789291858673096,1,1,4632,289.500
4.793248653411865,1,1,4626,289.125
4.797242879867554,1,1,4604,287.750
4.801243305206299,1,1,4584,286.500
4.805246114730835,1,1,4600,287.500
4.809262037277222,1,1,4632,289.500
4.813249588012695,1,1,4626,289.125
4.8172407150268555,1,1,4596,287.250
4.8212432861328125,1,1,4585,286.562
4.82524561882019,1,1,4592,287.000
4.82928729057312,1,1,4632,289.500
4.833250522613525,1,1,4627,289.188
4.837242603302002,1,1,4596,287.250
4.84124231338501,1,1,4582,286.375
4.845488786697388,1,1,4596,287.250
4.849520921707153,1,1,4632,289.500
4.853291749954224,1,1,4630,289.375
4.857245206832886,1,1,4595,287.188
4.861242294311523,1,1,4590,286.875
4.8652427196502686,1,1,4597,287.312
4.869298458099365,1,1,4628,289.250
4.87324595451355,1,1,4629,289.312
4.877354860305786,1,1,4600,287.500
4.881207704544067,1,1,4586,286.625
4.885205984115601,1,1,4591,286.938
4.889251947402954,1,1,4626,289.125
4.8932130336761475,1,1,4636,289.750
4.8971946239471436,1,1,4597,287.312
4.901194095611572,1,1,4581,286.312
4.905205249786377,1,1,4596,287.250
4.909254789352417,1,1,4627,289.188
4.913211822509766,1,1,4640,290.000
4.9172043800354,1,1,4591,286.938
4.92120361328125,1,1,4577,286.062
4.925202369689941,1,1,4600,287.500
4.92924690246582,1,1,4620,288.750
4.933208465576172,1,1,4643,290.188
4.937201738357544,1,1,4595,287.188
4.941205024719238,1,1,4584,286.500
4.9452033042907715,1,1,4593,287.062
4.949248313903809,1,1,4620,288.750
4.953211784362793,1,1,4636,289.750
4.957205295562744,1,1,4593,287.062
4.9612061977386475,1,1,4577,286.062
4.965206623077393,1,1,4600,287.500
4.969254732131958,1,1,4623,288.938
4.973214864730835,1,1,4639,289.938
4.9773054122924805,1,1,4603,287.688
4.981245756149292,1,1,4577,286.062
4.985243797302246,1,1,4598,287.375
4.989290475845337,1,1,4622,288.875
4.993248224258423,1,1,4640,290.000
4.99724006652832,1,1,4603,287.688
5.001242637634277,1,1,4584,286.500
5.005237579345703,1,1,4593,287.062
5.009247541427612,1,1,4617,288.562
5.01324462890625,1,1,4638,289.875
5.017244338989258,1,1,4600,287.500
5.041125297546387,1,1,4584,286.500
5.042429447174072,1,1,4597,287.312
5.045247316360474,1,1,4597,287.312
5.049262523651123,1,1,4613,288.312
5.053250312805176,1,1,4639,289.938
5.057241678237915,1,1,4600,287.500
5.061258792877197,1,1,4579,286.188
5.065246343612671,1,1,4585,286.562
5.069291591644287,1,1,4611,288.188
5.073249816894531,1,1,4653,290.812
5.077410697937012,1,1,4585,286.562
5.081206560134888,1,1,4585,286.562
5.085203170776367,1,1,4591,286.938
5.089209318161011,1,1,4649,290.562
5.093205213546753,1,1,4598,287.375
5.097202777862549,1,1,4583,286.438
5.101203680038452,1,1,4592,287.000
5.1052045822143555,1,1,4610,288.125
5.109246015548706,1,1,4651,290.688
5.1132049560546875,1,1,4597,287.312
5.1172034740448,1,1,4586,286.625
5.121204376220703,1,1,4589,286.812
5.12520432472229,1,1,4607,287.938
5.129216194152832,1,1,4651,290.688
5.133209943771362,1,1,4602,287.625
5.1372010707855225,1,1,4593,287.062
5.1412012577056885,1,1,4584,286.500
5.145196437835693,1,1,4601,287.562
5.149232387542725,1,1,4647,290.438
5.1532018184661865,1,1,4609,288.062
5.157202482223511,1,1,4591,286.938
5.161201000213623,1,1,4590,286.875
5.165203094482422,1,1,4606,287.875
5.169218063354492,1,1,4655,290.938
5.173209190368652,1,1,4606,287.875
5.17729115486145,1,1,4596,287.250
5.181239366531372,1,1,4588,286.750
5.185241460800171,1,1,4602,287.625
5.189287185668945,1,1,4646,290.375
5.193244934082031,1,1,4608,288.000
5.197238922119141,1,1,4599,287.438
5.201238393783569,1,1,4590,286.875
5.20524001121521,1,1,4602,287.625
5.209255218505859,1,1,4643,290.188
5.213246583938599,1,1,4613,288.312
5.217240333557129,1,1,4597,287.312
5.22124171257019,1,1,4590,286.875
5.225234031677246,1,1,4596,287.250
5.229281663894653,1,1,4648,290.500
5.2332444190979,1,1,4608,288.000
5.237237215042114,1,1,4594,287.125
5.241251230239868,1,1,4590,286.875
5.245232343673706,1,1,4602,287.625
5.249258756637573,1,1,4648,290.500
5.253264427185059,1,1,4605,287.812
5.2572596073150635,1,1,4597,287.312
5.261239051818848,1,1,4583,286.438
5.265230655670166,1,1,4603,287.688
5.2692766189575195,1,1,4652,290.750
5.273239850997925,1,1,4601,287.562
5.277398109436035,1,1,4604,287.750
5.281238317489624,1,1,4585,286.562
5.285304069519043,1,1,4602,287.625
5.289367914199829,1,1,4639,289.938
5.293234348297119,1,1,4608,288.000
5.297193288803101,1,1,4604,287.750
5.301205158233643,1,1,4585,286.562
5.305209636688232,1,1,4605,287.812
5.309255361557007,1,1,4640,290.000
5.313206434249878,1,1,4605,287.812
5.317241430282593,1,1,4601,287.562
5.32121729850769,1,1,4589,286.812
5.325197219848633,1,1,4601,287.562
5.329242944717407,1,1,4647,290.438
5.333193063735962,1,1,4613,288.312
5.337200164794922,1,1,4596,287.250
5.341195106506348,1,1,4584,286.500
5.345191717147827,1,1,4602,287.625
5.3492326736450195,1,1,4637,289.812
5.353190660476685,1,1,4618,288.625
5.357188940048218,1,1,4602,287.625
5.3611884117126465,1,1,4588,286.750
5.365188360214233,1,1,4605,287.812
5.369233846664429,1,1,4645,290.312
5.373194932937622,1,1,4611,288.188
5.377240180969238,1,1,4598,287.375
5.381191253662109,1,1,4588,286.750
5.385199069976807,1,1,4593,287.062
5.389240741729736,1,1,4640,290.000
5.393213987350464,1,1,4617,288.562
5.39719033241272,1,1,4598,287.375
5.401189804077148,1,1,4579,286.188
5.405197381973267,1,1,4600,287.500
5.409224987030029,1,1,4631,289.438
5.4132068157196045,1,1,4620,288.750
5.41719913482666,1,1,4589,286.812
5.421200752258301,1,1,4592,287.000
5.4252095222473145,1,1,4598,287.375
5.429238557815552,1,1,4637,289.812
5.4332051277160645,1,1,4618,288.625
5.437196969985962,1,1,4599,287.438
5.441210985183716,1,1,4584,286.500
5.445199728012085,1,1,4601,287.562
5.44921350479126,1,1,4636,289.750
5.453205347061157,1,1,4620,288.750
5.457208156585693,1,1,4591,286.938
5.4611992835998535,1,1,4587,286.688
5.4651994705200195,1,1,4595,287.188
5.46924090385437,1,1,4635,289.688
5.473215579986572,1,1,4623,288.938
5.477307558059692,1,1,4592,287.000
5.4812421798706055,1,1,4589,286.812
5.485231876373291,1,1,4601,287.562
5.489251613616943,1,1,4631,289.438
5.493233919143677,1,1,4619,288.688
5.497235536575317,1,1,4598,287.375
5.501235246658325,1,1,4585,286.562
5.505245923995972,1,1,4596,287.250
5.509279489517212,1,1,4634,289.625
5.51323938369751,1,1,4629,289.312
5.517233610153198,1,1,4595,287.188
5.521233320236206,1,1,4584,286.500
5.525234699249268,1,1,4591,286.938
5.529253721237183,1,1,4627,289.188
5.533245801925659,1,1,4624,289.000
5.5372314453125,1,1,4603,287.688
5.541233062744141,1,1,4589,286.812
5.54523491859436,1,1,4596,287.250
5.549278974533081,1,1,4625,289.062
5.553242444992065,1,1,4626,289.125
5.557232141494751,1,1,4593,287.062
5.561233758926392,1,1,4591,286.938
5.565234899520874,1,1,4603,287.688
5.569250583648682,1,1,4632,289.500
5.573240041732788,1,1,4627,289.188
5.57735276222229,1,1,4600,287.500
5.581210136413574,1,1,4591,286.938
5.5852179527282715,1,1,4596,287.250
5.589202642440796,1,1,4621,288.812
5.593207120895386,1,1,4638,289.875
5.597211837768555,1,1,4593,287.062
5.6012115478515625,1,1,4584,286.500
5.605204343795776,1,1,4605,287.812
5.609204292297363,1,1,4622,288.875
5.6132025718688965,1,1,4639,289.938
5.617253303527832,1,1,4596,287.250
5.6212005615234375,1,1,4576,286.000
5.62520432472229,1,1,4598,287.375
5.6291985511779785,1,1,4628,289.250
5.633213996887207,1,1,4626,289.125
5.637239217758179,1,1,4601,287.562
5.641205787658691,1,1,4595,287.188
5.645196914672852,1,1,4594,287.125
5.6492040157318115,1,1,4624,289.000
5.653197288513184,1,1,4647,290.438
5.65723991394043,1,1,4584,286.500
5.661200523376465,1,1,4595,287.188
5.665213346481323,1,1,4611,288.188
5.669201374053955,1,1,4637,289.812
5.67320442199707,1,1,4595,287.188
5.677291631698608,1,1,4586,286.625
5.681242942810059,1,1,4596,287.250
5.685241937637329,1,1,4617,288.562
5.689247131347656,1,1,4644,290.250
5.693240165710449,1,1,4605,287.812
5.697281360626221,1,1,4587,286.688
5.701235771179199,1,1,4596,287.250
5.705254077911377,1,1,4605,287.812
5.709239482879639,1,1,4638,289.875
5.713240623474121,1,1,4600,287.500
5.717276334762573,1,1,4588,286.750
5.7212488651275635,1,1,4591,286.938
5.72524094581604,1,1,4612,288.250
5.729240894317627,1,1,4648,290.500
5.7332398891448975,1,1,4599,287.438
5.7372822761535645,1,1,4587,286.688
5.741236925125122,1,1,4591,286.938
5.745254278182983,1,1,4613,288.312
5.749237060546875,1,1,4637,289.812
5.753237247467041,1,1,4608,288.000
5.757277250289917,1,1,4587,286.688
5.761244773864746,1,1,4598,287.375
5.765239000320435,1,1,4606,287.875
5.769238471984863,1,1,4650,290.625
5.773236274719238,1,1,4601,287.562
5.777365446090698,1,1,4587,286.688
5.7811877727508545,1,1,4593,287.062
5.785212993621826,1,1,4611,288.188
5.789197683334351,1,1,4638,289.875
5.793200492858887,1,1,4603,287.688
5.797236919403076,1,1,4589,286.812
5.801195859909058,1,1,4593,287.062
5.805198907852173,1,1,4605,287.812
5.809196472167969,1,1,4647,290.438
5.813201665878296,1,1,4603,287.688
5.817232847213745,1,1,4594,287.125
5.82119607925415,1,1,4593,287.062
5.8252012729644775,1,1,4608,288.000
5.829195976257324,1,1,4644,290.250
5.833196401596069,1,1,4608,288.000
5.837208032608032,1,1,4595,287.188
5.841198205947876,1,1,4590,286.875
5.845447778701782,1,1,4603,287.688
5.849408388137817,1,1,4650,290.625
5.853222370147705,1,1,4612,288.250
5.8572468757629395,1,1,4588,286.750
5.861195802688599,1,1,4588,286.750
5.8651909828186035,1,1,4603,287.688
5.869187116622925,1,1,4648,290.500
5.8731935024261475,1,1,4610,288.125
5.877348899841309,1,1,4594,287.125
5.88123893737793,1,1,4593,287.062
5.885239124298096,1,1,4606,287.875
5.889226913452148,1,1,4650,290.625
5.893235921859741,1,1,4608,288.000
5.897268772125244,1,1,4591,286.938
5.901221513748169,1,1,4587,286.688
5.905619144439697,1,1,4596,287.250
5.909619331359863,1,1,4648,290.500
5.913373231887817,1,1,4605,287.812
5.917259931564331,1,1,4590,286.875
5.921224355697632,1,1,4593,287.062
5.9252355098724365,1,1,4595,287.188
5.929232358932495,1,1,4651,290.688
5.933235168457031,1,1,4607,287.938
5.9372711181640625,1,1,4596,287.250
5.941220283508301,1,1,4588,286.750
5.945237159729004,1,1,4596,287.250
5.949235200881958,1,1,4646,290.375
5.953238248825073,1,1,4607,287.938
5.957278490066528,1,1,4596,287.250
5.961235523223877,1,1,4592,287.000
5.965240240097046,1,1,4600,287.500
5.969241142272949,1,1,4644,290.250
5.973241567611694,1,1,4610,288.125
5.977342128753662,1,1,4602,287.625
5.981198787689209,1,1,4587,286.688
5.985201597213745,1,1,4601,287.562
5.989195346832275,1,1,4650,290.625
5.993194580078125,1,1,4612,288.250
5.997205972671509,1,1,4595,287.188
6.001194715499878,1,1,4590,286.875
6.005199909210205,1,1,4609,288.062
6.009194612503052,1,1,4649,290.562
6.0132012367248535,1,1,4613,288.312
6.017236948013306,1,1,4596,287.250
6.021193027496338,1,1,4591,286.938
6.025195360183716,1,1,4607,287.938
6.029193878173828,1,1,4637,289.812
6.03319239616394,1,1,4609,288.062
6.042722463607788,1,1,4592,287.000
6.045229434967041,1,1,4600,287.500
6.049198627471924,1,1,4648,290.500
6.0532026290893555,1,1,4615,288.438
6.05724024772644,1,1,4589,286.812
6.0611958503723145,1,1,4587,286.688
6.065197467803955,1,1,4595,287.188
6.069194555282593,1,1,4637,289.812
6.073197841644287,1,1,4617,288.562
6.0772385597229,1,1,4596,287.250
6.081192255020142,1,1,4587,286.688
6.085197687149048,1,1,4601,287.562
6.089195013046265,1,1,4650,290.625
6.093200206756592,1,1,4613,288.312
6.0972373485565186,1,1,4592,287.000
6.10119366645813,1,1,4592,287.000
6.1051976680755615,1,1,4601,287.562
6.10919451713562,1,1,4646,290.375
6.113196849822998,1,1,4623,288.938
6.1172332763671875,1,1,4587,286.688
6.121193885803223,1,1,4587,286.688
6.125197649002075,1,1,4606,287.875
6.129192352294922,1,1,4639,289.938
6.133198261260986,1,1,4620,288.750
6.137233734130859,1,1,4599,287.438
6.141196966171265,1,1,4589,286.812
6.1451897621154785,1,1,4598,287.375
6.149188041687012,1,1,4642,290.125
6.153192520141602,1,1,4619,288.688
6.157233953475952,1,1,4594,287.125
6.161194562911987,1,1,4583,286.438
6.1651952266693115,1,1,4598,287.375
6.169193267822266,1,1,4634,289.625
6.173194169998169,1,1,4625,289.062
6.177304983139038,1,1,4602,287.625
6.181231498718262,1,1,4580,286.250
6.185235261917114,1,1,4598,287.375
6.1892290115356445,1,1,4631,289.438
6.193233966827393,1,1,4622,288.875
6.197275876998901,1,1,4593,287.062
6.201229572296143,1,1,4583,286.438
6.205238103866577,1,1,4598,287.375
6.209229469299316,1,1,4627,289.188
6.213233709335327,1,1,4618,288.625
6.217274188995361,1,1,4595,287.188
6.221230983734131,1,1,4598,287.375
6.225236415863037,1,1,4624,289.000
6.229231119155884,1,1,4622,288.875
6.233233213424683,1,1,4598,287.375
6.237273216247559,1,1,4586,286.625
6.24123215675354,1,1,4596,287.250
6.245224237442017,1,1,4631,289.438
6.249216318130493,1,1,4621,288.812
6.253227233886719,1,1,4603,287.688
6.257275581359863,1,1,4589,286.812
6.261228084564209,1,1,4597,287.312
6.265235900878906,1,1,4635,289.688
6.2692296504974365,1,1,4619,288.688
6.273231267929077,1,1,4591,286.938
6.277334213256836,1,1,4586,286.625
6.281192779541016,1,1,4597,287.312
6.285188913345337,1,1,4628,289.250
6.289185285568237,1,1,4627,289.188
6.293189525604248,1,1,4604,287.750
6.297232389450073,1,1,4588,286.750
6.301192045211792,1,1,4593,287.062
6.305202960968018,1,1,4622,288.875
6.309215068817139,1,1,4625,289.062
6.313196897506714,1,1,4592,287.000
6.317223072052002,1,1,4592,287.000
6.321188688278198,1,1,4590,286.875
6.325337648391724,1,1,4623,288.938
6.329341888427734,1,1,4627,289.188
6.333221912384033,1,1,4598,287.375
6.337205648422241,1,1,4591,286.938
6.341182231903076,1,1,4594,287.125
6.345205307006836,1,1,4626,289.125
6.349195241928101,1,1,4630,289.375
6.353217601776123,1,1,4603,287.688
6.357295989990234,1,1,4589,286.812
6.3612024784088135,1,1,4596,287.250
6.365195274353027,1,1,4622,288.875
6.369190454483032,1,1,4627,289.188
6.373189210891724,1,1,4601,287.562
6.377274990081787,1,1,4587,286.688
6.381186485290527,1,1,4589,286.812
6.385193586349487,1,1,4617,288.562
6.3891894817352295,1,1,4629,289.312
6.393188953399658,1,1,4598,287.375
6.397232294082642,1,1,4584,286.500
6.401189088821411,1,1,4589,286.812
6.405189275741577,1,1,4613,288.312
6.409189701080322,1,1,4632,289.500
6.413191318511963,1,1,4603,287.688
6.417208194732666,1,1,4584,286.500
6.4211907386779785,1,1,4593,287.062
6.425191402435303,1,1,4617,288.562
6.42918848991394,1,1,4642,290.125
6.433187961578369,1,1,4601,287.562
6.437228679656982,1,1,4587,286.688
6.441186189651489,1,1,4591,286.938
6.445191383361816,1,1,4616,288.500
6.4491894245147705,1,1,4644,290.250
6.453193187713623,1,1,4607,287.938
6.457229137420654,1,1,4588,286.750
6.461187839508057,1,1,4589,286.812
6.465192794799805,1,1,4613,288.312
6.469192028045654,1,1,4638,289.875
6.473189353942871,1,1,4605,287.812
6.4773218631744385,1,1,4588,286.750
6.48122501373291,1,1,4590,286.875
6.485231161117554,1,1,4610,288.125
6.489225625991821,1,1,4643,290.188
6.493231773376465,1,1,4599,287.438
6.497241258621216,1,1,4595,287.188
6.501225233078003,1,1,4592,287.000
6.505224704742432,1,1,4608,288.000
6.509225845336914,1,1,4640,290.000
6.5132269859313965,1,1,4605,287.812
6.517270565032959,1,1,4587,286.688
6.521227836608887,1,1,4590,286.875
6.525222301483154,1,1,4603,287.688
6.5292205810546875,1,1,4644,290.250
6.533223390579224,1,1,4605,287.812
6.537268161773682,1,1,4585,286.562
6.54122519493103,1,1,4594,287.125
6.545229911804199,1,1,4607,287.938
6.549221992492676,1,1,4648,290.500
6.553225994110107,1,1,4608,288.000
6.557269811630249,1,1,4588,286.750
6.5612242221832275,1,1,4588,286.750
6.5652289390563965,1,1,4603,287.688
6.5692291259765625,1,1,4648,290.500
6.573230266571045,1,1,4607,287.938
6.577335596084595,1,1,4584,286.500
6.5811920166015625,1,1,4592,287.000
6.585191488265991,1,1,4604,287.750
6.589185476303101,1,1,4656,291.000
6.593186855316162,1,1,4596,287.250
6.597198963165283,1,1,4585,286.562
6.6011881828308105,1,1,4587,286.688
6.605182409286499,1,1,4606,287.875
6.6091835498809814,1,1,4653,290.812
6.613186836242676,1,1,4598,287.375
6.617228746414185,1,1,4582,286.375
6.6211864948272705,1,1,4592,287.000
6.625192403793335,1,1,4606,287.875
6.629188299179077,1,1,4643,290.188
6.63318395614624,1,1,4613,288.312
6.6372270584106445,1,1,4582,286.375
6.6411919593811035,1,1,4595,287.188
6.645184278488159,1,1,4608,288.000
6.6491782665252686,1,1,4646,290.375
6.653183937072754,1,1,4600,287.500
6.657225608825684,1,1,4586,286.625
6.661187171936035,1,1,4597,287.312
6.665188312530518,1,1,4607,287.938
6.669186592102051,1,1,4641,290.062
6.673184871673584,1,1,4613,288.312
6.677279233932495,1,1,4587,286.688
6.68122673034668,1,1,4592,287.000
6.685232400894165,1,1,4602,287.625
6.689222097396851,1,1,4644,290.250
6.6932291984558105,1,1,4605,287.812
6.697272777557373,1,1,4585,286.562
6.7012245655059814,1,1,4590,286.875
6.705226898193359,1,1,4603,287.688
6.709223031997681,1,1,4638,289.875
6.713221073150635,1,1,4610,288.125
6.7172675132751465,1,1,4585,286.562
6.721222877502441,1,1,4590,286.875
6.725225925445557,1,1,4607,287.938
6.7292234897613525,1,1,4642,290.125
6.733228921890259,1,1,4618,288.625
6.73726487159729,1,1,4586,286.625
6.741222858428955,1,1,4586,286.625
6.7452287673950195,1,1,4608,288.000
6.749223947525024,1,1,4646,290.375
6.753221035003662,1,1,4604,287.750
6.757266283035278,1,1,4589,286.812
6.761223793029785,1,1,4588,286.750
6.765226602554321,1,1,4598,287.375
6.769224643707275,1,1,4644,290.250
6.773227214813232,1,1,4608,288.000
6.777313232421875,1,1,4595,287.188
6.781188488006592,1,1,4583,286.438
6.785191059112549,1,1,4599,287.438
6.789184808731079,1,1,4613,288.312
6.793181657791138,1,1,4587,286.688
6.797216892242432,1,1,4588,286.750
6.801171779632568,1,1,4601,287.562
6.8051838874816895,1,1,4641,290.062
6.809184551239014,1,1,4615,288.438
6.813182830810547,1,1,4599,287.438
6.817195415496826,1,1,4587,286.688
6.821184396743774,1,1,4603,287.688
6.825188398361206,1,1,4640,290.000
6.829183101654053,1,1,4617,288.562
6.833180904388428,1,1,4590,286.875
6.837223529815674,1,1,4582,286.375
6.841182231903076,1,1,4591,286.938
6.845430850982666,1,1,4639,289.938
6.849395513534546,1,1,4611,288.188
6.853207588195801,1,1,4591,286.938
6.857234477996826,1,1,4582,286.375
6.861182689666748,1,1,4597,287.312
6.865180730819702,1,1,4639,289.938
6.869174480438232,1,1,4616,288.500
6.873181581497192,1,1,4592,287.000
6.8773205280303955,1,1,4583,286.438
6.881224155426025,1,1,4590,286.875
6.885224103927612,1,1,4636,289.750
6.889221668243408,1,1,4611,288.188
6.893219709396362,1,1,4610,288.125
6.897225379943848,1,1,4589,286.812
6.901210069656372,1,1,4596,287.250
6.90523099899292,1,1,4635,289.688
6.90921950340271,1,1,4619,288.688
6.91321873664856,1,1,4598,287.375
6.917268991470337,1,1,4586,286.625
6.921218156814575,1,1,4598,287.375
6.925216913223267,1,1,4633,289.562
6.929208993911743,1,1,4619,288.688
6.933215856552124,1,1,4601,287.562
6.937267541885376,1,1,4587,286.688
6.941219329833984,1,1,4594,287.125
6.945221662521362,1,1,4640,290.000
6.949219703674316,1,1,4620,288.750
6.953218221664429,1,1,4598,287.375
6.957265377044678,1,1,4588,286.750
6.9612181186676025,1,1,4596,287.250
6.965224981307983,1,1,4628,289.250
6.969224452972412,1,1,4622,288.875
6.973228454589844,1,1,4596,287.250
6.977329254150391,1,1,4586,286.625
6.9811851978302,1,1,4601,287.562
6.985186576843262,1,1,4630,289.375
6.989181041717529,1,1,4626,289.125
6.993178844451904,1,1,4608,288.000
6.997192859649658,1,1,4587,286.688
7.001178026199341,1,1,4603,287.688
7.0051844120025635,1,1,4634,289.625
7.0091798305511475,1,1,4622,288.875
7.013185739517212,1,1,4600,287.500
7.017223834991455,1,1,4580,286.250
7.021180868148804,1,1,4595,287.188
7.025183439254761,1,1,4623,288.938
7.029180526733398,1,1,4627,289.188
7.033177375793457,1,1,4600,287.500
7.037220478057861,1,1,4580,286.250
7.046555280685425,1,1,4619,288.688
7.049222469329834,1,1,4632,289.500
7.053188800811768,1,1,4599,287.438
7.057219505310059,1,1,4583,286.438
7.061171531677246,1,1,4593,287.062
7.065182209014893,1,1,4619,288.688
7.0691821575164795,1,1,4626,289.125
7.073179244995117,1,1,4600,287.500
7.07722544670105,1,1,4586,286.625
7.0811803340911865,1,1,4594,287.125
7.08518385887146,1,1,4623,288.938
7.08918023109436,1,1,4639,289.938
7.093186140060425,1,1,4600,287.500
7.097219705581665,1,1,4582,286.375
7.101179838180542,1,1,4598,287.375
7.105182886123657,1,1,4623,288.938
7.109179496765137,1,1,4631,289.438
7.113178968429565,1,1,4601,287.562
7.117221355438232,1,1,4581,286.312
7.121179819107056,1,1,4598,287.375
7.125182867050171,1,1,4619,288.688
7.129178762435913,1,1,4632,289.500
7.133183002471924,1,1,4595,287.188
7.1372199058532715,1,1,4584,286.500
7.141180992126465,1,1,4596,287.250
7.145177125930786,1,1,4624,289.000
7.149169206619263,1,1,4637,289.812
7.153174161911011,1,1,4604,287.750
7.157216310501099,1,1,4574,285.875
7.1611809730529785,1,1,4591,286.938
7.165185213088989,1,1,4618,288.625
7.1691789627075195,1,1,4639,289.938
7.173183917999268,1,1,4594,287.125
7.17723536491394,1,1,4578,286.125
7.181220769882202,1,1,4587,286.688
7.185222625732422,1,1,4611,288.188
7.189216375350952,1,1,4644,290.250
7.193214654922485,1,1,4600,287.500
7.197263479232788,1,1,4575,285.938
7.20121693611145,1,1,4593,287.062
7.2052202224731445,1,1,4610,288.125
7.209217071533203,1,1,4646,290.375
7.213221549987793,1,1,4600,287.500
7.217262029647827,1,1,4577,286.062
7.221217155456543,1,1,4593,287.062
7.225221395492554,1,1,4619,288.688
7.229219436645508,1,1,4648,290.500
7.233215808868408,1,1,4595,287.188
7.237262964248657,1,1,4580,286.250
7.241218328475952,1,1,4595,287.188
7.245220422744751,1,1,4613,288.312
7.249218702316284,1,1,4646,290.375
7.253207445144653,1,1,4603,287.688
7.257255792617798,1,1,4582,286.375
7.2612035274505615,1,1,4593,287.062
7.265217065811157,1,1,4605,287.812
7.269217491149902,1,1,4651,290.688
7.273273706436157,1,1,4603,287.688
7.277505874633789,1,1,4590,286.875
7.281283140182495,1,1,4593,287.062
7.2851881980896,1,1,4610,288.125
7.289169073104858,1,1,4655,290.938
7.293179750442505,1,1,4605,287.812
7.297205686569214,1,1,4578,286.125
7.301185369491577,1,1,4593,287.062
7.305239915847778,1,1,4606,287.875
7.309190034866333,1,1,4644,290.250
7.31317925453186,1,1,4605,287.812
7.317224740982056,1,1,4581,286.312
7.321179151535034,1,1,4591,286.938
7.3251872062683105,1,1,4603,287.688
7.3291707038879395,1,1,4655,290.938
7.33317756652832,1,1,4602,287.625
7.337223291397095,1,1,4591,286.938
7.341177940368652,1,1,4590,286.875
7.345182418823242,1,1,4603,287.688
7.349180459976196,1,1,4644,290.250
7.353174686431885,1,1,4608,288.000
7.357209205627441,1,1,4591,286.938
7.3611695766448975,1,1,4603,287.688
7.365182876586914,1,1,4654,290.875
7.3691794872283936,1,1,4603,287.688
7.373183488845825,1,1,4586,286.625
7.377301454544067,1,1,4591,286.938
7.381220102310181,1,1,4605,287.812
7.38521933555603,1,1,4655,290.938
7.3892152309417725,1,1,4609,288.062
7.393209934234619,1,1,4594,287.125
7.397256374359131,1,1,4584,286.500
7.401201963424683,1,1,4606,287.875
7.405217170715332,1,1,4637,289.812
7.409215450286865,1,1,4603,287.688
7.413217544555664,1,1,4588,286.750
7.417263031005859,1,1,4591,286.938
7.42121148109436,1,1,4599,287.438
7.425219297409058,1,1,4646,290.375
7.429213047027588,1,1,4604,287.750
7.433210849761963,1,1,4596,287.250
7.437263250350952,1,1,4594,287.125
7.441213369369507,1,1,4598,287.375
7.4452197551727295,1,1,4650,290.625
7.44921350479126,1,1,4609,288.062
7.453219652175903,1,1,4592,287.000
7.457261323928833,1,1,4583,286.438
7.461214542388916,1,1,4602,287.625
7.465214729309082,1,1,4647,290.438
7.469219446182251,1,1,4613,288.312
7.473209619522095,1,1,4594,287.125
7.477326154708862,1,1,4581,286.312
7.481176137924194,1,1,4598,287.375
7.485180139541626,1,1,4638,289.875
7.489174127578735,1,1,4610,288.125
7.493179082870483,1,1,4601,287.562
7.497217178344727,1,1,4589,286.812
7.50117564201355,1,1,4596,287.250
7.505177021026611,1,1,4646,290.375
7.509174585342407,1,1,4610,288.125
7.513170957565308,1,1,4599,287.438
7.5172131061553955,1,1,4582,286.375
7.521172046661377,1,1,4598,287.375
7.5251758098602295,1,1,4641,290.062
7.529173135757446,1,1,4613,288.312
7.533179521560669,1,1,4604,287.750
7.537188768386841,1,1,4578,286.125
7.541173934936523,1,1,4596,287.250
7.545175075531006,1,1,4646,290.375
7.54917311668396,1,1,4612,288.250
7.553170204162598,1,1,4604,287.750
7.557214975357056,1,1,4582,286.375
7.561176776885986,1,1,4596,287.250
7.565170049667358,1,1,4643,290.188
7.569171905517578,1,1,4610,288.125
7.573173522949219,1,1,4590,286.875
7.5772998332977295,1,1,4580,286.250
7.58121395111084,1,1,4603,287.688
7.585215330123901,1,1,4640,290.000
7.58920955657959,1,1,4621,288.812
7.593207359313965,1,1,4600,287.500
7.59722375869751,1,1,4583,286.438
7.601213455200195,1,1,4598,287.375
7.6052141189575195,1,1,4636,289.750
7.609211444854736,1,1,4616,288.500
7.613209962844849,1,1,4594,287.125
7.617255449295044,1,1,4586,286.625
7.621211290359497,1,1,4597,287.312
7.625215530395508,1,1,4641,290.062
7.629210948944092,1,1,4616,288.500
7.633206844329834,1,1,4597,287.312
7.637256622314453,1,1,4583,286.438
7.641213893890381,1,1,4603,287.688
7.645206928253174,1,1,4634,289.625
7.649200439453125,1,1,4629,289.312
7.65320611000061,1,1,4595,287.188
7.657257556915283,1,1,4587,286.688
7.661210536956787,1,1,4600,287.500
7.66521430015564,1,1,4632,289.500
7.66921067237854,1,1,4627,289.188
7.673206329345703,1,1,4600,287.500
7.677300453186035,1,1,4583,286.438
7.681172847747803,1,1,4597,287.312
7.685176372528076,1,1,4627,289.188
7.689168930053711,1,1,4627,289.188
7.693176507949829,1,1,4596,287.250
7.69718337059021,1,1,4582,286.375
7.701171636581421,1,1,4598,287.375
7.70517373085022,1,1,4629,289.312
7.709170818328857,1,1,4630,289.375
7.713169574737549,1,1,4594,287.125
7.717209100723267,1,1,4583,286.438
7.721170902252197,1,1,4597,287.312
7.725175619125366,1,1,4633,289.562
7.729169130325317,1,1,4631,289.438
7.733169078826904,1,1,4595,287.188
7.737207412719727,1,1,4584,286.500
7.741170406341553,1,1,4599,287.438
7.745174884796143,1,1,4626,289.125
7.749168872833252,1,1,4633,289.562
7.753173351287842,1,1,4600,287.500
7.757180690765381,1,1,4582,286.375
7.761169672012329,1,1,4603,287.688
7.765171766281128,1,1,4627,289.188
7.76916766166687,1,1,4636,289.750
7.773172855377197,1,1,4598,287.375
7.777303218841553,1,1,4584,286.500
7.781210422515869,1,1,4591,286.938
7.785207986831665,1,1,4627,289.188
7.789207935333252,1,1,4634,289.625
7.7932116985321045,1,1,4591,286.938
7.797253131866455,1,1,4577,286.062
7.801208257675171,1,1,4598,287.375
7.8052122592926025,1,1,4620,288.750
7.809208631515503,1,1,4632,289.500
7.813209056854248,1,1,4603,287.688
7.817211627960205,1,1,4584,286.500
7.821194648742676,1,1,4598,287.375
7.8252246379852295,1,1,4630,289.375
7.829207420349121,1,1,4636,289.750
7.8332130908966064,1,1,4596,287.250
7.837253093719482,1,1,4586,286.625
7.8412251472473145,1,1,4595,287.188
7.8454577922821045,1,1,4616,288.500
7.8494837284088135,1,1,4645,290.312
7.853253602981567,1,1,4600,287.500
7.85727596282959,1,1,4582,286.375
7.86119818687439,1,1,4600,287.500
7.865202188491821,1,1,4620,288.750
7.869194984436035,1,1,4648,290.500
7.8732123374938965,1,1,4593,287.062
7.877326726913452,1,1,4572,285.750
7.881174325942993,1,1,4593,287.062
7.88517427444458,1,1,4620,288.750
7.889171838760376,1,1,4642,290.125
7.893173456192017,1,1,4600,287.500
7.897185564041138,1,1,4585,286.562
7.90116024017334,1,1,4593,287.062
7.905171632766724,1,1,4613,288.312
7.9091713428497314,1,1,4647,290.438
7.913185358047485,1,1,4598,287.375
7.917206764221191,1,1,4577,286.062
7.921170711517334,1,1,4589,286.812
7.925173759460449,1,1,4646,290.375
7.929182052612305,1,1,4597,287.312
7.9331746101379395,1,1,4575,285.938
7.937209367752075,1,1,4595,287.188
7.941167831420898,1,1,4608,288.000
7.945178508758545,1,1,4650,290.625
7.949169635772705,1,1,4602,287.625
7.953171253204346,1,1,4585,286.562
7.957205772399902,1,1,4591,286.938
7.961181163787842,1,1,4605,287.812
7.96517276763916,1,1,4646,290.375
7.969173192977905,1,1,4596,287.250
7.973174571990967,1,1,4588,286.750
7.977295160293579,1,1,4591,286.938
7.981210708618164,1,1,4605,287.812
7.985223770141602,1,1,4647,290.438
7.989207983016968,1,1,4607,287.938
7.993208885192871,1,1,4592,287.000
7.997251987457275,1,1,4586,286.625
8.001220226287842,1,1,4600,287.500
8.005210638046265,1,1,4643,290.188
8.009203910827637,1,1,4598,287.375
8.013209104537964,1,1,4594,287.125
8.017261743545532,1,1,4590,286.875
8.02120566368103,1,1,4603,287.688
8.025202751159668,1,1,4651,290.688
8.02920413017273,1,1,4608,288.000
8.033209800720215,1,1,4591,286.938
8.037254333496094,1,1,4590,286.875
8.041207313537598,1,1,4608,288.000
8.05180025100708,1,1,4598,287.375
8.053248643875122,1,1,4585,286.562
8.057267427444458,1,1,4583,286.438
8.06120777130127,1,1,4606,287.875
8.065206289291382,1,1,4647,290.438
8.069205522537231,1,1,4608,288.000
8.073200225830078,1,1,4595,287.188
8.077350378036499,1,1,4597,287.312
8.081159114837646,1,1,4601,287.562
8.085167646408081,1,1,4644,290.250
8.089168548583984,1,1,4610,288.125
8.093171834945679,1,1,4595,287.188
8.09720492362976,1,1,4592,287.000
8.101166009902954,1,1,4601,287.562
8.105166673660278,1,1,4645,290.312
8.109167337417603,1,1,4608,288.000
8.113169431686401,1,1,4604,287.750
8.117199659347534,1,1,4590,286.875
8.121167659759521,1,1,4601,287.562
8.125169277191162,1,1,4646,290.375
8.12916374206543,1,1,4608,288.000
8.133171081542969,1,1,4601,287.562
8.137178421020508,1,1,4590,286.875
8.141168355941772,1,1,4602,287.625
8.145159006118774,1,1,4644,290.250
8.149155378341675,1,1,4607,287.938
8.15316390991211,1,1,4597,287.312
8.157204627990723,1,1,4592,287.000
8.161164999008179,1,1,4605,287.812
8.165171384811401,1,1,4643,290.188
8.16916561126709,1,1,4616,288.500
8.173168897628784,1,1,4600,287.500
8.177294492721558,1,1,4589,286.812
8.181207418441772,1,1,4601,287.562
8.185203313827515,1,1,4649,290.562
8.189203262329102,1,1,4611,288.188
8.193208456039429,1,1,4597,287.312
8.197216987609863,1,1,4584,286.500
8.201202154159546,1,1,4599,287.438
8.205206394195557,1,1,4641,290.062
8.209203720092773,1,1,4614,288.375
8.213204860687256,1,1,4593,287.062
8.217249393463135,1,1,4585,286.562
8.221200704574585,1,1,4600,287.500
8.225202083587646,1,1,4637,289.812
8.229200839996338,1,1,4616,288.500
8.233207702636719,1,1,4589,286.812
8.237250089645386,1,1,4587,286.688
8.241204023361206,1,1,4596,287.250
8.245206594467163,1,1,4643,290.188
8.24920105934143,1,1,4613,288.312
8.253204345703125,1,1,4591,286.938
8.25723910331726,1,1,4585,286.562
8.261188983917236,1,1,4597,287.312
8.265201568603516,1,1,4639,289.938
8.269201278686523,1,1,4618,288.625
8.273205518722534,1,1,4596,287.250
8.277281761169434,1,1,4585,286.562
8.281167984008789,1,1,4596,287.250
8.285167217254639,1,1,4643,290.188
8.289161920547485,1,1,4617,288.562
8.293165683746338,1,1,4588,286.750
8.297199487686157,1,1,4580,286.250
8.301162719726562,1,1,4592,287.000
8.305167198181152,1,1,4631,289.438
8.309165716171265,1,1,4620,288.750
8.313164949417114,1,1,4588,286.750
8.317201852798462,1,1,4584,286.500
8.321168184280396,1,1,4593,287.062
8.325159788131714,1,1,4633,289.562
8.32915997505188,1,1,4622,288.875
8.333162546157837,1,1,4588,286.750
8.33720350265503,1,1,4585,286.562
8.341165542602539,1,1,4598,287.375
8.345162868499756,1,1,4629,289.312
8.349163293838501,1,1,4624,289.000
8.353163242340088,1,1,4603,287.688
8.357200145721436,1,1,4585,286.562
8.361165285110474,1,1,4596,287.250
8.365161657333374,1,1,4627,289.188
8.36915397644043,1,1,4626,289.125
8.373160600662231,1,1,4593,287.062
8.377301216125488,1,1,4586,286.625
8.381206035614014,1,1,4603,287.688
8.385202407836914,1,1,4633,289.562
8.38919973373413,1,1,4634,289.625
8.393200874328613,1,1,4591,286.938
8.397234916687012,1,1,4593,287.062
8.401187658309937,1,1,4601,287.562
8.40520167350769,1,1,4627,289.188
8.409200429916382,1,1,4625,289.062
8.413206338882446,1,1,4598,287.375
8.417214155197144,1,1,4582,286.375
8.42120099067688,1,1,4591,286.938
8.425202369689941,1,1,4625,289.062
8.42920184135437,1,1,4633,289.562
8.433203935623169,1,1,4591,286.938
8.437249898910522,1,1,4591,286.938
8.44120454788208,1,1,4593,287.062
8.445205926895142,1,1,4628,289.250
8.44919729232788,1,1,4622,288.875
8.453206539154053,1,1,4594,287.125
8.45724892616272,1,1,4580,286.250
8.461201429367065,1,1,4597,287.312
8.465198993682861,1,1,4621,288.812
8.469205617904663,1,1,4626,289.125
8.473204851150513,1,1,4596,287.250
8.477293014526367,1,1,4581,286.312
8.481166124343872,1,1,4596,287.250
8.485183954238892,1,1,4620,288.750
8.489163637161255,1,1,4627,289.188
8.49316930770874,1,1,4586,286.625
8.497174739837646,1,1,4595,287.188
8.501163244247437,1,1,4621,288.812
8.505160093307495,1,1,4634,289.625
8.509161472320557,1,1,4601,287.562
8.513164758682251,1,1,4593,287.062
8.517202138900757,1,1,4591,286.938
8.521159648895264,1,1,4627,289.188
8.525166511535645,1,1,4635,289.688
8.529159784317017,1,1,4594,287.125
8.533159732818604,1,1,4592,287.000
8.537195205688477,1,1,4597,287.312
8.541162014007568,1,1,4617,288.562
8.545162439346313,1,1,4637,289.812
8.549160242080688,1,1,4595,287.188
8.553159713745117,1,1,4588,286.750
8.557169675827026,1,1,4595,287.188
8.561159372329712,1,1,4605,287.812
8.565163373947144,1,1,4635,289.688
8.569162845611572,1,1,4607,287.938
8.573158740997314,1,1,4581,286.312
8.577283143997192,1,1,4589,286.812
8.581201553344727,1,1,4606,287.875
8.585196256637573,1,1,4643,290.188
8.589198350906372,1,1,4599,287.438
8.593202590942383,1,1,4593,287.062
8.597243785858154,1,1,4598,287.375
8.60120153427124,1,1,4608,288.000
8.60519552230835,1,1,4641,290.062
8.60918641090393,1,1,4601,287.562
8.613194942474365,1,1,4591,286.938
8.617213726043701,1,1,4593,287.062
8.621198892593384,1,1,4613,288.312
8.625200271606445,1,1,4639,289.938
8.629197359085083,1,1,4603,287.688
8.633201360702515,1,1,4591,286.938
8.637243747711182,1,1,4600,287.500
8.641201972961426,1,1,4602,287.625
8.645195960998535,1,1,4644,290.250
8.649182081222534,1,1,4608,288.000
8.653191804885864,1,1,4591,286.938
8.657248973846436,1,1,4598,287.375
8.661198139190674,1,1,4610,288.125
8.665197134017944,1,1,4639,289.938
8.66920018196106,1,1,4608,288.000
8.673201322555542,1,1,4592,287.000
8.677287578582764,1,1,4586,286.625
8.681167364120483,1,1,4606,287.875
8.68515920639038,1,1,4647,290.438
8.689146757125854,1,1,4610,288.125
8.693155765533447,1,1,4592,287.000
8.697211027145386,1,1,4593,287.062
8.70117473602295,1,1,4610,288.125
8.705156326293945,1,1,4646,290.375
8.709150791168213,1,1,4612,288.250
8.713154315948486,1,1,4595,287.188
8.717172861099243,1,1,4593,287.062
8.721164464950562,1,1,4600,287.500
8.728119850158691,1,1,4644,290.250
8.72944688796997,1,1,4604,287.750
8.733170509338379,1,1,4593,287.062
8.737149477005005,1,1,4597,287.312
8.741151094436646,1,1,4604,287.750
8.745157957077026,1,1,4652,290.750
8.74915099143982,1,1,4610,288.125
8.753157377243042,1,1,4592,287.000
8.757158756256104,1,1,4588,286.750
8.761157751083374,1,1,4601,287.562
8.76515245437622,1,1,4651,290.688
8.769227027893066,1,1,4604,287.750
8.77316689491272,1,1,4591,286.938
8.77727723121643,1,1,4592,287.000
8.781195878982544,1,1,4599,287.438
8.785187005996704,1,1,4646,290.375
8.789183378219604,1,1,4607,287.938
8.793193817138672,1,1,4592,287.000
8.797195672988892,1,1,4589,286.812
8.801182508468628,1,1,4602,287.625
8.805184841156006,1,1,4648,290.500
8.809177875518799,1,1,4613,288.312
8.813184261322021,1,1,4593,287.062
8.81718134880066,1,1,4588,286.750
8.821181058883667,1,1,4596,287.250
8.825181007385254,1,1,4650,290.625
8.829179763793945,1,1,4604,287.750
8.833187341690063,1,1,4596,287.250
8.837180614471436,1,1,4582,286.375
8.84118390083313,1,1,4599,287.438
8.845404386520386,1,1,4644,290.250
8.849448204040527,1,1,4611,288.188
8.853241443634033,1,1,4587,286.688
8.857195377349854,1,1,4589,286.812
8.861193180084229,1,1,4599,287.438
8.865193128585815,1,1,4641,290.062
8.869191646575928,1,1,4617,288.562
8.87319564819336,1,1,4592,287.000
8.877298593521118,1,1,4589,286.812
8.881159543991089,1,1,4601,287.562
8.885155200958252,1,1,4645,290.312
8.889158010482788,1,1,4610,288.125
8.893161058425903,1,1,4592,287.000
8.897145509719849,1,1,4590,286.875
8.901146411895752,1,1,4603,287.688
8.905152082443237,1,1,4642,290.125
8.909162282943726,1,1,4606,287.875
8.91315770149231,1,1,4592,287.000
8.917153120040894,1,1,4590,286.875
8.921154737472534,1,1,4598,287.375
8.925151586532593,1,1,4641,290.062
8.929153680801392,1,1,4608,288.000
8.933152914047241,1,1,4589,286.812
8.937151908874512,1,1,4585,286.562
8.94115161895752,1,1,4600,287.500
8.945152044296265,1,1,4637,289.812
8.949153900146484,1,1,4613,288.312
8.95315670967102,1,1,4599,287.438
8.957153558731079,1,1,4590,286.875
8.96115517616272,1,1,4603,287.688
8.96515417098999,1,1,4641,290.062
8.969156742095947,1,1,4624,289.000
8.973158121109009,1,1,4592,287.000
8.977252960205078,1,1,4585,286.562
8.981196641921997,1,1,4603,287.688
8.985189199447632,1,1,4643,290.188
8.98919129371643,1,1,4623,288.938
8.993196964263916,1,1,4588,286.750
8.997187376022339,1,1,4587,286.688
9.00119161605835,1,1,4601,287.562
9.005191087722778,1,1,4640,290.000
9.009191036224365,1,1,4617,288.562
9.013192415237427,1,1,4598,287.375
9.01719045639038,1,1,4593,287.062
9.021192073822021,1,1,4595,287.188
9.025185823440552,1,1,4633,289.562
9.029189825057983,1,1,4616,288.500
9.033194780349731,1,1,4594,287.125
9.037188053131104,1,1,4585,286.562
9.041191101074219,1,1,4593,287.062
9.045188188552856,1,1,4639,289.938
9.055787086486816,1,1,4589,286.812
9.057216882705688,1,1,4598,287.375
9.061192750930786,1,1,4630,289.375
9.06520390510559,1,1,4623,288.938
9.069195985794067,1,1,4599,287.438
9.07319688796997,1,1,4581,286.312
9.077292919158936,1,1,4603,287.688
9.081159830093384,1,1,4631,289.438
9.085153102874756,1,1,4626,289.125
9.089145421981812,1,1,4597,287.312
9.093151807785034,1,1,4592,287.000
9.097155332565308,1,1,4595,287.188
9.101151704788208,1,1,4635,289.688
9.105157852172852,1,1,4629,289.312
9.109156131744385,1,1,4595,287.188
9.113154649734497,1,1,4588,286.750
9.117151975631714,1,1,4590,286.875
9.121155500411987,1,1,4632,289.500
9.12515664100647,1,1,4619,288.688
9.129156351089478,1,1,4596,287.250
9.133151531219482,1,1,4581,286.312
9.137152910232544,1,1,4596,287.250
9.141153812408447,1,1,4632,289.500
9.145146369934082,1,1,4618,288.625
9.149142026901245,1,1,4600,287.500
9.153148651123047,1,1,4586,286.625
9.157153844833374,1,1,4594,287.125
9.161153554916382,1,1,4621,288.812
9.165157318115234,1,1,4635,289.688
9.169155359268188,1,1,4610,288.125
9.173153638839722,1,1,4598,287.375
9.177236318588257,1,1,4598,287.375
9.18119478225708,1,1,4619,288.688
9.185192346572876,1,1,4628,289.250
9.189194202423096,1,1,4600,287.500
9.193195104598999,1,1,4589,286.812
9.197188377380371,1,1,4596,287.250
9.20119023323059,1,1,4620,288.750
9.205193281173706,1,1,4633,289.562
9.209192991256714,1,1,4598,287.375
9.213188171386719,1,1,4593,287.062
9.217189311981201,1,1,4591,286.938
9.221190690994263,1,1,4617,288.562
9.225192070007324,1,1,4629,289.312
9.229190587997437,1,1,4598,287.375
9.233193635940552,1,1,4594,287.125
9.237186431884766,1,1,4591,286.938
9.241191625595093,1,1,4613,288.312
9.245206117630005,1,1,4633,289.562
9.249194622039795,1,1,4607,287.938
9.253190755844116,1,1,4582,286.375
9.257177829742432,1,1,4600,287.500
9.261191368103027,1,1,4614,288.375
9.265276432037354,1,1,4644,290.250
9.269196033477783,1,1,4596,287.250
9.273197174072266,1,1,4589,286.812
9.277493953704834,1,1,4600,287.500
9.281294822692871,1,1,4611,288.188
9.285173416137695,1,1,4636,289.750
9.289144515991211,1,1,4601,287.562
9.293153285980225,1,1,4587,286.688
9.297138452529907,1,1,4593,287.062
9.301139831542969,1,1,4617,288.562
9.305217981338501,1,1,4647,290.438
9.309152841567993,1,1,4604,287.750
9.313143491744995,1,1,4581,286.312
9.317140579223633,1,1,4596,287.250
9.321141481399536,1,1,4619,288.688
9.325150728225708,1,1,4642,290.125
9.32914113998413,1,1,4595,287.188
9.33314323425293,1,1,4591,286.938
9.337137937545776,1,1,4598,287.375
9.341138362884521,1,1,4615,288.438
9.345141172409058,1,1,4639,289.938
9.349139213562012,1,1,4593,287.062
9.353140115737915,1,1,4589,286.812
9.357140064239502,1,1,4590,286.875
9.36113953590393,1,1,4608,288.000
9.365139484405518,1,1,4647,290.438
9.369140625,1,1,4603,287.688
9.373144388198853,1,1,4583,286.438
9.377201080322266,1,1,4587,286.688
9.381149291992188,1,1,4601,287.562
9.385152816772461,1,1,4649,290.562
9.38914966583252,1,1,4605,287.812
9.393146991729736,1,1,4585,286.562
9.397136688232422,1,1,4587,286.688
9.4011390209198,1,1,4607,287.938
9.405140399932861,1,1,4651,290.688
9.409136533737183,1,1,4599,287.438
9.413142442703247,1,1,4583,286.438
9.417148351669312,1,1,4589,286.812
9.421149253845215,1,1,4599,287.438
9.425148487091064,1,1,4652,290.750
9.429147243499756,1,1,4607,287.938
9.433152198791504,1,1,4584,286.500
9.437143564224243,1,1,4589,286.812
9.441147327423096,1,1,4604,287.750
9.44515085220337,1,1,4648,290.500
9.44914960861206,1,1,4601,287.562
9.453145265579224,1,1,4579,286.188
9.457141160964966,1,1,4586,286.625
9.461146831512451,1,1,4603,287.688
9.465149164199829,1,1,4652,290.750
9.469149112701416,1,1,4603,287.688
9.473152160644531,1,1,4586,286.625
9.477298259735107,1,1,4590,286.875
9.481186389923096,1,1,4600,287.500
9.485188722610474,1,1,4644,290.250
9.489188432693481,1,1,4600,287.500
9.49318265914917,1,1,4583,286.438
9.497196674346924,1,1,4590,286.875
9.501184701919556,1,1,4605,287.812
9.505184888839722,1,1,4651,290.688
9.50918459892273,1,1,4603,287.688
9.51318621635437,1,1,4583,286.438
9.51722764968872,1,1,4586,286.625
9.521185159683228,1,1,4605,287.812
9.525187253952026,1,1,4652,290.750
9.52918028831482,1,1,4605,287.812
9.53318452835083,1,1,4586,286.625
9.537229537963867,1,1,4588,286.750
9.54118537902832,1,1,4605,287.812
9.545180559158325,1,1,4645,290.312
9.549180746078491,1,1,4608,288.000
9.553187608718872,1,1,4585,286.562
9.557226181030273,1,1,4590,286.875
9.56118392944336,1,1,4606,287.875
9.56518840789795,1,1,4641,290.062
9.569185733795166,1,1,4615,288.438
9.573179721832275,1,1,4586,286.625
9.577265977859497,1,1,4595,287.188
9.581149101257324,1,1,4606,287.875
9.585148334503174,1,1,4644,290.250
9.58914566040039,1,1,4603,287.688
9.59314751625061,1,1,4588,286.750
9.597140550613403,1,1,4585,286.562
9.601147174835205,1,1,4601,287.562
9.605149269104004,1,1,4644,290.250
9.609142065048218,1,1,4608,288.000
9.613141298294067,1,1,4589,286.812
9.617143869400024,1,1,4589,286.812
9.621145963668823,1,1,4599,287.438
9.625144720077515,1,1,4641,290.062
9.629143953323364,1,1,4613,288.312
9.63314414024353,1,1,4585,286.562
9.637141227722168,1,1,4604,287.750
9.641146659851074,1,1,4647,290.438
9.645142078399658,1,1,4612,288.250
9.64913296699524,1,1,4584,286.500
9.653140306472778,1,1,4589,286.812
9.65714168548584,1,1,4596,287.250
9.661145210266113,1,1,4650,290.625
9.665146827697754,1,1,4616,288.500
9.669143915176392,1,1,4596,287.250
9.673148393630981,1,1,4582,286.375
9.677276134490967,1,1,4595,287.188
9.681181907653809,1,1,4639,289.938
9.685187339782715,1,1,4610,288.125
9.689182996749878,1,1,4591,286.938
9.693177938461304,1,1,4586,286.625
9.697229146957397,1,1,4593,287.062
9.701183080673218,1,1,4635,289.688
9.705183506011963,1,1,4615,288.438
9.709181547164917,1,1,4600,287.500
9.713181734085083,1,1,4585,286.562
9.717192888259888,1,1,4602,287.625
9.721181392669678,1,1,4638,289.875
9.725184440612793,1,1,4613,288.312
9.729176759719849,1,1,4601,287.562
9.73318076133728,1,1,4587,286.688
9.73722505569458,1,1,4606,287.875
9.7411789894104,1,1,4636,289.750
9.74517822265625,1,1,4622,288.875
9.74917984008789,1,1,4607,287.938
9.75318431854248,1,1,4591,286.938
9.757224559783936,1,1,4596,287.250
9.761179208755493,1,1,4633,289.562
9.765182733535767,1,1,4623,288.938
9.769179821014404,1,1,4598,287.375
9.773175954818726,1,1,4589,286.812
9.777254104614258,1,1,4596,287.250
9.781144857406616,1,1,4636,289.750
9.785142183303833,1,1,4624,289.000
9.789142370223999,1,1,4596,287.250
9.793148040771484,1,1,4580,286.250
9.797139644622803,1,1,4596,287.250
9.801141262054443,1,1,4638,289.875
9.805144548416138,1,1,4627,289.188
9.809142112731934,1,1,4608,288.000
9.81313967704773,1,1,4586,286.625
9.817137002944946,1,1,4596,287.250
9.821140766143799,1,1,4628,289.250
9.825142860412598,1,1,4620,288.750
9.829139471054077,1,1,4600,287.500
9.833139896392822,1,1,4584,286.500
9.837136268615723,1,1,4606,287.875
9.841141700744629,1,1,4629,289.312
9.845385074615479,1,1,4624,289.000
9.849346160888672,1,1,4601,287.562
9.853170394897461,1,1,4580,286.250
9.85713505744934,1,1,4607,287.938
9.861134052276611,1,1,4633,289.562
9.865145444869995,1,1,4620,288.750
9.869141578674316,1,1,4606,287.875
9.873139142990112,1,1,4588,286.750
9.877296447753906,1,1,4607,287.938
9.881181955337524,1,1,4623,288.938
9.885177612304688,1,1,4630,289.375
9.889179706573486,1,1,4598,287.375
9.893178701400757,1,1,4576,286.000
9.897181987762451,1,1,4597,287.312
9.90116810798645,1,1,4620,288.750
9.905179023742676,1,1,4630,289.375
9.909179210662842,1,1,4601,287.562
9.913182258605957,1,1,4582,286.375
9.917250156402588,1,1,4591,286.938
9.92118215560913,1,1,4624,289.000
9.925180196762085,1,1,4637,289.812
9.929175615310669,1,1,4595,287.188
9.933180570602417,1,1,4578,286.125
9.937225818634033,1,1,4592,287.000
9.9411780834198,1,1,4622,288.875
9.945175886154175,1,1,4636,289.750
9.94917607307434,1,1,4599,287.438
9.953183889389038,1,1,4581,286.312
9.957191228866577,1,1,4601,287.562
9.961175441741943,1,1,4622,288.875
9.9651780128479,1,1,4635,289.688
9.969176769256592,1,1,4597,287.312
9.97318172454834,1,1,4584,286.500
9.97732949256897,1,1,4600,287.500
9.981144905090332,1,1,4619,288.688
9.985139846801758,1,1,4633,289.562
9.98913836479187,1,1,4593,287.062
9.993138790130615,1,1,4577,286.062
9.997135639190674,1,1,4600,287.500
10.001141548156738,1,1,4608,288.000
10.005140781402588,1,1,4638,289.875
10.00913953781128,1,1,4596,287.250
10.013137340545654,1,1,4578,286.125
10.017134666442871,1,1,4599,287.438
10.021139144897461,1,1,4620,288.750
10.025139570236206,1,1,4641,290.062
10.029138803482056,1,1,4588,286.750
10.033142805099487,1,1,4579,286.188
10.037136316299438,1,1,4593,287.062
10.041144132614136,1,1,4613,288.312
10.045141458511353,1,1,4642,290.125
10.049137592315674,1,1,4595,287.188
10.069967031478882,1,1,4603,287.688
10.073188304901123,1,1,4578,286.125
10.077194929122925,1,1,4598,287.375
10.08114242553711,1,1,4606,287.875
10.085136413574219,1,1,4646,290.375
10.089137315750122,1,1,4600,287.500
10.093137502670288,1,1,4577,286.062
10.097132682800293,1,1,4593,287.062
10.10113787651062,1,1,4608,288.000
10.10513162612915,1,1,4651,290.688
10.10912799835205,1,1,4600,287.500
10.113131284713745,1,1,4580,286.250
10.117135524749756,1,1,4588,286.750
10.12113881111145,1,1,4608,288.000
10.125130891799927,1,1,4651,290.688
10.129126787185669,1,1,4600,287.500
10.1331307888031,1,1,4578,286.125
10.137136697769165,1,1,4592,287.000
10.14113974571228,1,1,4607,287.938
10.145130634307861,1,1,4651,290.688
10.149128198623657,1,1,4602,287.625
10.153133392333984,1,1,4583,286.438
10.157135248184204,1,1,4592,287.000
10.161136150360107,1,1,4607,287.938
10.165138721466064,1,1,4645,290.312
10.169138431549072,1,1,4604,287.750
10.173134565353394,1,1,4581,286.312
10.177285194396973,1,1,4587,286.688
10.181180000305176,1,1,4604,287.750
10.18516993522644,1,1,4651,290.688
10.189173221588135,1,1,4603,287.688
10.193177700042725,1,1,4584,286.500
10.197186470031738,1,1,4591,286.938
10.201174020767212,1,1,4651,290.688
10.20517611503601,1,1,4608,288.000
10.209174871444702,1,1,4585,286.562
10.213172435760498,1,1,4581,286.312
10.217215061187744,1,1,4602,287.625
10.221173524856567,1,1,4649,290.562
10.225172519683838,1,1,4606,287.875
10.229172229766846,1,1,4598,287.375
10.233176946640015,1,1,4584,286.500
10.237215757369995,1,1,4604,287.750
10.241178274154663,1,1,4643,290.188
10.245175838470459,1,1,4607,287.938
10.249171495437622,1,1,4593,287.062
10.253177404403687,1,1,4592,287.000
10.25718879699707,1,1,4608,288.000
10.261174201965332,1,1,4646,290.375
10.265165090560913,1,1,4600,287.500
10.269160032272339,1,1,4589,286.812
10.273169040679932,1,1,4592,287.000
10.277290105819702,1,1,4604,287.750
10.281139373779297,1,1,4642,290.125
10.285139322280884,1,1,4613,288.312
10.289132833480835,1,1,4589,286.812
10.293134689331055,1,1,4586,286.625
10.297133445739746,1,1,4602,287.625
10.301137685775757,1,1,4648,290.500
10.305146932601929,1,1,4613,288.312
10.309138536453247,1,1,4599,287.438
10.313141107559204,1,1,4590,286.875
10.317131280899048,1,1,4600,287.500
10.321174383163452,1,1,4644,290.250
10.325137615203857,1,1,4610,288.125
10.329131364822388,1,1,4597,287.312
10.33313274383545,1,1,4579,286.188
10.337129592895508,1,1,4599,287.438
10.341151714324951,1,1,4641,290.062
10.345132827758789,1,1,4605,287.812
10.349134683609009,1,1,4593,287.062
10.353134632110596,1,1,4585,286.562
10.357131719589233,1,1,4596,287.250
10.361172914505005,1,1,4641,290.062
10.36513066291809,1,1,4610,288.125
10.369124412536621,1,1,4604,287.750
10.37312912940979,1,1,4592,287.000
10.37723684310913,1,1,4598,287.375
10.3811776638031,1,1,4645,290.312
10.385172128677368,1,1,4617,288.562
10.389183759689331,1,1,4606,287.875
10.393175840377808,1,1,4582,286.375
10.397206783294678,1,1,4596,287.250
10.401157140731812,1,1,4637,289.812
10.405171155929565,1,1,4615,288.438
10.40917158126831,1,1,4606,287.875
10.413310527801514,1,1,4581,286.312
10.41722846031189,1,1,4599,287.438
10.421162605285645,1,1,4646,290.375
10.425398826599121,1,1,4612,288.250
10.429348945617676,1,1,4600,287.500
10.433204889297485,1,1,4583,286.438
10.437222003936768,1,1,4603,287.688
10.44123888015747,1,1,4642,290.125
10.445173740386963,1,1,4618,288.625
10.449163436889648,1,1,4600,287.500
10.453167915344238,1,1,4588,286.750
10.457213640213013,1,1,4606,287.875
10.461158752441406,1,1,4634,289.625
10.46516466140747,1,1,4619,288.688
10.469159603118896,1,1,4596,287.250
10.473162174224854,1,1,4587,286.688
10.477250337600708,1,1,4601,287.562
10.48112964630127,1,1,4634,289.625
10.485131740570068,1,1,4625,289.062
10.489125728607178,1,1,4599,287.438
10.493126630783081,1,1,4580,286.250
10.497124195098877,1,1,4597,287.312
10.501122951507568,1,1,4631,289.438
10.505136251449585,1,1,4619,288.688
10.509135246276855,1,1,4604,287.750
10.513138771057129,1,1,4586,286.625
10.517130613327026,1,1,4595,287.188
10.52113676071167,1,1,4628,289.250
10.525134086608887,1,1,4629,289.312
10.529133796691895,1,1,4592,287.000
10.533132314682007,1,1,4584,286.500
10.537129640579224,1,1,4605,287.812
10.541176795959473,1,1,4629,289.312
10.545135259628296,1,1,4627,289.188
10.549134016036987,1,1,4599,287.438
10.553139209747314,1,1,4584,286.500
10.557126998901367,1,1,4589,286.812
10.561176538467407,1,1,4625,289.062
10.565137386322021,1,1,4629,289.312
10.569134950637817,1,1,4591,286.938
10.573132038116455,1,1,4583,286.438
10.57727313041687,1,1,4602,287.625
10.581176280975342,1,1,4623,288.938
10.585174560546875,1,1,4627,289.188
10.589170455932617,1,1,4592,287.000
10.593173027038574,1,1,4583,286.438
10.597187280654907,1,1,4601,287.562
10.601171970367432,1,1,4625,289.062
10.605170726776123,1,1,4634,289.625
10.609168529510498,1,1,4600,287.500
10.613168239593506,1,1,4582,286.375
10.617212772369385,1,1,4598,287.375
10.621171236038208,1,1,4623,288.938
10.625172138214111,1,1,4644,290.250
10.629167318344116,1,1,4598,287.375
10.63317608833313,1,1,4582,286.375
10.637211322784424,1,1,4591,286.938
10.641172170639038,1,1,4623,288.938
10.645165205001831,1,1,4641,290.062
10.64915680885315,1,1,4605,287.812
10.653162956237793,1,1,4582,286.375
10.657183647155762,1,1,4598,287.375
10.661168575286865,1,1,4618,288.625
10.665165185928345,1,1,4638,289.875
10.669167041778564,1,1,4593,287.062
10.673171043395996,1,1,4582,286.375
10.677251100540161,1,1,4603,287.688
10.681136131286621,1,1,4623,288.938
10.685130596160889,1,1,4639,289.938
10.68912148475647,1,1,4598,287.375
10.693127393722534,1,1,4577,286.062
10.697128772735596,1,1,4593,287.062
10.701169967651367,1,1,4617,288.562
10.70512866973877,1,1,4643,290.188
10.709130048751831,1,1,4602,287.625
10.713136911392212,1,1,4582,286.375
10.717127799987793,1,1,4590,286.875
10.721129894256592,1,1,4613,288.312
10.725133419036865,1,1,4646,290.375
10.729130506515503,1,1,4594,287.125
10.733128309249878,1,1,4576,286.000
10.737127780914307,1,1,4586,286.625
10.741130352020264,1,1,4616,288.500
10.745128870010376,1,1,4645,290.312
10.749129295349121,1,1,4595,287.188
10.753134727478027,1,1,4580,286.250
10.75712776184082,1,1,4589,286.812
10.76113247871399,1,1,4609,288.062
10.765127897262573,1,1,4639,289.938
10.769119501113892,1,1,4598,287.375
10.77312970161438,1,1,4595,287.188
10.777228355407715,1,1,4614,288.375
10.781172752380371,1,1,4644,290.250
10.785163164138794,1,1,4603,287.688
10.789165019989014,1,1,4587,286.688
10.793173789978027,1,1,4591,286.938
10.797208547592163,1,1,4616,288.500
10.801165342330933,1,1,4652,290.750
10.805168151855469,1,1,4603,287.688
10.809163331985474,1,1,4583,286.438
10.813165426254272,1,1,4596,287.250
10.81720757484436,1,1,4603,287.688
10.821166276931763,1,1,4640,290.000
10.82516360282898,1,1,4597,287.312
10.829166173934937,1,1,4585,286.562
10.833169221878052,1,1,4588,286.750
10.837208986282349,1,1,4607,287.938
10.84116792678833,1,1,4649,290.562
10.845365524291992,1,1,4601,287.562
10.849425554275513,1,1,4597,287.312
10.853219509124756,1,1,4592,287.000
10.857218503952026,1,1,4603,287.688
10.861165761947632,1,1,4645,290.312
10.86516547203064,1,1,4600,287.500
10.869165658950806,1,1,4595,287.188
10.873163223266602,1,1,4594,287.125
10.877248287200928,1,1,4601,287.562
10.881120920181274,1,1,4645,290.312
10.8851318359375,1,1,4608,288.000
10.889131784439087,1,1,4598,287.375
10.893130540847778,1,1,4588,286.750
10.897117614746094,1,1,4598,287.375
10.901114702224731,1,1,4648,290.500
10.905128717422485,1,1,4605,287.812
10.909134149551392,1,1,4595,287.188
10.913126945495605,1,1,4585,286.562
10.917222499847412,1,1,4600,287.500
10.921133279800415,1,1,4644,290.250
10.92512559890747,1,1,4605,287.812
10.929124355316162,1,1,4596,287.250
10.933127403259277,1,1,4585,286.562
10.937126159667969,1,1,4602,287.625
10.941126108169556,1,1,4655,290.938
10.945127248764038,1,1,4605,287.812
10.949127197265625,1,1,4595,287.188
10.953134298324585,1,1,4590,286.875
10.95712423324585,1,1,4598,287.375
10.961125135421753,1,1,4642,290.125
10.965126752853394,1,1,4601,287.562
10.969126224517822,1,1,4593,287.062
10.973135709762573,1,1,4585,286.562
10.977272748947144,1,1,4601,287.562
10.981168508529663,1,1,4652,290.750
10.985161304473877,1,1,4610,288.125
10.989162921905518,1,1,4597,287.312
10.993169784545898,1,1,4583,286.438
10.99717664718628,1,1,4607,287.938
11.001165390014648,1,1,4641,290.062
11.005166053771973,1,1,4617,288.562
11.009164333343506,1,1,4605,287.812
11.013162612915039,1,1,4584,286.500
11.017206192016602,1,1,4598,287.375
11.021162509918213,1,1,4636,289.750
11.025164365768433,1,1,4614,288.375
11.029161930084229,1,1,4595,287.188
11.03316617012024,1,1,4583,286.438
11.03720474243164,1,1,4600,287.500
11.04116678237915,1,1,4631,289.438
11.045166730880737,1,1,4615,288.438
11.049157857894897,1,1,4591,286.938
11.053164720535278,1,1,4586,286.625
11.057175636291504,1,1,4599,287.438
11.061163425445557,1,1,4641,290.062
11.065160274505615,1,1,4621,288.812
11.075973749160767,1,1,4598,287.375
11.077340602874756,1,1,4598,287.375
11.08114767074585,1,1,4646,290.375
11.08513593673706,1,1,4613,288.312
11.089127779006958,1,1,4596,287.250
11.09312629699707,1,1,4583,286.438
11.097120523452759,1,1,4596,287.250
11.101123094558716,1,1,4634,289.625
11.105125665664673,1,1,4619,288.688
11.109125137329102,1,1,4591,286.938
11.11313271522522,1,1,4586,286.625
11.117120742797852,1,1,4594,287.125
11.121121168136597,1,1,4636,289.750
11.125125646591187,1,1,4617,288.562
11.129117012023926,1,1,4589,286.812
11.133119583129883,1,1,4584,286.500
11.137119054794312,1,1,4600,287.500
11.141125202178955,1,1,4635,289.688
11.145124912261963,1,1,4624,289.000
11.149116277694702,1,1,4601,287.562
11.15312147140503,1,1,4581,286.312
11.157121896743774,1,1,4602,287.625
11.161124229431152,1,1,4637,289.812
11.165127992630005,1,1,4625,289.062
11.16912293434143,1,1,4599,287.438
11.17312240600586,1,1,4585,286.562
11.177204132080078,1,1,4593,287.062
11.181164264678955,1,1,4631,289.438
11.185163021087646,1,1,4627,289.188
11.189160346984863,1,1,4595,287.188
11.193163871765137,1,1,4585,286.562
11.197206735610962,1,1,4593,287.062
11.201162815093994,1,1,4629,289.312
11.205165147781372,1,1,4628,289.250
11.20915937423706,1,1,4595,287.188
11.213162183761597,1,1,4589,286.812
11.217206954956055,1,1,4596,287.250
11.22116208076477,1,1,4634,289.625
11.225157022476196,1,1,4622,288.875
11.229159593582153,1,1,4591,286.938
11.233163118362427,1,1,4589,286.812
11.237202405929565,1,1,4591,286.938
11.241161823272705,1,1,4629,289.312
11.245171308517456,1,1,4634,289.625
11.249168872833252,1,1,4595,287.188
11.253156185150146,1,1,4589,286.812
11.257147312164307,1,1,4593,287.062
11.261703252792358,1,1,4625,289.062
11.265200138092041,1,1,4627,289.188
11.269152164459229,1,1,4593,287.062
11.273149728775024,1,1,4585,286.562
11.277413129806519,1,1,4591,286.938
11.281280994415283,1,1,4629,289.312
11.285140752792358,1,1,4626,289.125
11.289116859436035,1,1,4594,287.125
11.293122053146362,1,1,4585,286.562
11.297123908996582,1,1,4593,287.062
11.301125764846802,1,1,4626,289.125
11.305128574371338,1,1,4632,289.500
11.309115409851074,1,1,4593,287.062
11.313121795654297,1,1,4585,286.562
11.31711721420288,1,1,4592,287.000
11.32113242149353,1,1,4627,289.188
11.325198411941528,1,1,4631,289.438
11.329129934310913,1,1,4599,287.438
11.33311676979065,1,1,4581,286.312
11.337114810943604,1,1,4594,287.125
11.341110467910767,1,1,4633,289.562
11.345125913619995,1,1,4600,287.500
11.349114894866943,1,1,4587,286.688
11.353124141693115,1,1,4591,286.938
11.35712194442749,1,1,4608,288.000
11.361124038696289,1,1,4639,289.938
11.365118265151978,1,1,4592,287.000
11.36911392211914,1,1,4588,286.750
11.373120784759521,1,1,4592,287.000
11.377121448516846,1,1,4618,288.625
11.381160259246826,1,1,4636,289.750
11.385114192962646,1,1,4598,287.375
11.389110326766968,1,1,4586,286.625
11.393115043640137,1,1,4590,286.875
11.397112131118774,1,1,4617,288.562
11.401107549667358,1,1,4640,290.000
11.405122518539429,1,1,4597,287.312
11.409122705459595,1,1,4587,286.688
11.413123607635498,1,1,4588,286.750
11.417117595672607,1,1,4616,288.500
11.421118259429932,1,1,4636,289.750
11.42512035369873,1,1,4607,287.938
11.429119348526001,1,1,4587,286.688
11.433126211166382,1,1,4589,286.812
11.437116622924805,1,1,4611,288.188
11.441120862960815,1,1,4640,290.000
11.445119380950928,1,1,4607,287.938
11.449118375778198,1,1,4594,287.125
11.453124046325684,1,1,4591,286.938
11.457119464874268,1,1,4610,288.125
11.4611177444458,1,1,4642,290.125
11.465118885040283,1,1,4601,287.562
11.469120740890503,1,1,4596,287.250
11.473124980926514,1,1,4591,286.938
11.47711992263794,1,1,4606,287.875
11.481231451034546,1,1,4634,289.625
11.485160112380981,1,1,4600,287.500
11.489145278930664,1,1,4589,286.812
11.493153095245361,1,1,4588,286.750
11.497171878814697,1,1,4602,287.625
11.501156330108643,1,1,4637,289.812
11.505159854888916,1,1,4603,287.688
11.509157180786133,1,1,4584,286.500
11.513163089752197,1,1,4598,287.375
11.517152547836304,1,1,4607,287.938
11.521154403686523,1,1,4642,290.125
11.525160074234009,1,1,4603,287.688
11.529156923294067,1,1,4592,287.000
11.533154249191284,1,1,4600,287.500
11.537151098251343,1,1,4601,287.562
11.541156768798828,1,1,4644,290.250
11.545157194137573,1,1,4607,287.938
11.549155235290527,1,1,4594,287.125
11.553158283233643,1,1,4593,287.062
11.55715274810791,1,1,4603,287.688
11.561157703399658,1,1,4639,289.938
11.565160274505615,1,1,4610,288.125
11.569153547286987,1,1,4592,287.000
11.573158025741577,1,1,4590,286.875
11.577152729034424,1,1,4602,287.625
11.581159830093384,1,1,4650,290.625
11.585124492645264,1,1,4606,287.875
11.58911943435669,1,1,4596,287.250
11.593122482299805,1,1,4587,286.688
11.59711503982544,1,1,4603,287.688
11.601118803024292,1,1,4641,290.062
11.605121374130249,1,1,4603,287.688
11.609116554260254,1,1,4595,287.188
11.613115310668945,1,1,4595,287.188
11.617116212844849,1,1,4598,287.375
11.62111520767212,1,1,4646,290.375
11.625118255615234,1,1,4604,287.750
11.62911581993103,1,1,4594,287.125
11.63312029838562,1,1,4588,286.750
11.637113571166992,1,1,4607,287.938
11.641119956970215,1,1,4644,290.250
11.64511513710022,1,1,4611,288.188
11.649105548858643,1,1,4596,287.250
11.653111696243286,1,1,4592,287.000
11.657114028930664,1,1,4597,287.312
11.66111445426941,1,1,4654,290.875
11.66511607170105,1,1,4611,288.188
11.66911506652832,1,1,4592,287.000
11.67311716079712,1,1,4584,286.500
11.677115201950073,1,1,4600,287.500
11.681196212768555,1,1,4645,290.312
11.685164451599121,1,1,4606,287.875
11.689152717590332,1,1,4587,286.688
11.693155527114868,1,1,4588,286.750
11.697150230407715,1,1,4599,287.438
11.701155424118042,1,1,4647,290.438
11.70515251159668,1,1,4609,288.062
11.709150552749634,1,1,4592,287.000
11.713153839111328,1,1,4591,286.938
11.717149019241333,1,1,4602,287.625
11.721155881881714,1,1,4645,290.312
11.725151777267456,1,1,4613,288.312
11.729143619537354,1,1,4593,287.062
11.733149290084839,1,1,4590,286.875
11.737147331237793,1,1,4594,287.125
11.741154909133911,1,1,4649,290.562
11.745156049728394,1,1,4607,287.938
11.74915337562561,1,1,4592,287.000
11.753156900405884,1,1,4590,286.875
11.757148742675781,1,1,4601,287.562
11.76115369796753,1,1,4641,290.062
11.76515793800354,1,1,4614,288.375
11.769150733947754,1,1,4594,287.125
11.773154020309448,1,1,4587,286.688
11.777148723602295,1,1,4596,287.250
11.78118634223938,1,1,4647,290.438
11.785151958465576,1,1,4620,288.750
11.78915023803711,1,1,4593,287.062
11.79315710067749,1,1,4585,286.562
11.797148704528809,1,1,4598,287.375
11.801150798797607,1,1,4647,290.438
11.80515456199646,1,1,4617,288.562
11.809152841567993,1,1,4592,287.000
11.813148975372314,1,1,4585,286.562
11.817147254943848,1,1,4601,287.562
11.821152448654175,1,1,4642,290.125
11.82515811920166,1,1,4617,288.562
11.829150676727295,1,1,4590,286.875
11.833153486251831,1,1,4587,286.688
11.837148189544678,1,1,4603,287.688
11.841154098510742,1,1,4641,290.062
11.845347881317139,1,1,4615,288.438
11.84938931465149,1,1,4595,287.188
11.853203535079956,1,1,4578,286.125
11.857206106185913,1,1,4599,287.438
11.861154317855835,1,1,4639,289.938
11.865151166915894,1,1,4624,289.000
11.869153022766113,1,1,4591,286.938
11.873156309127808,1,1,4586,286.625
11.877147912979126,1,1,4596,287.250
11.881265640258789,1,1,4637,289.812
11.885118246078491,1,1,4616,288.500
11.88911771774292,1,1,4594,287.125
11.893111944198608,1,1,4584,286.500
11.897104263305664,1,1,4596,287.250
11.90110182762146,1,1,4630,289.375
11.905116319656372,1,1,4624,289.000
11.909126281738281,1,1,4597,287.312
11.913166046142578,1,1,4597,287.312
11.917356729507446,1,1,4636,289.750
11.921235799789429,1,1,4618,288.625
11.925134658813477,1,1,4597,287.312
11.929105043411255,1,1,4587,286.688
11.933115243911743,1,1,4599,287.438
11.937115669250488,1,1,4635,289.688
11.941112995147705,1,1,4624,289.000
11.945111751556396,1,1,4597,287.312
11.949104309082031,1,1,4588,286.750
11.953115463256836,1,1,4593,287.062
11.957115173339844,1,1,4636,289.750
11.961114883422852,1,1,4623,288.938
11.965117931365967,1,1,4598,287.375
11.969113111495972,1,1,4586,286.625
11.97312068939209,1,1,4600,287.500
11.977114915847778,1,1,4625,289.062
11.981149673461914,1,1,4630,289.375
11.985113620758057,1,1,4592,287.000
11.989114999771118,1,1,4588,286.750
11.993123292922974,1,1,4594,287.125
11.99711275100708,1,1,4632,289.500
12.001111268997192,1,1,4628,289.250
12.005115032196045,1,1,4596,287.250
12.009116172790527,1,1,4589,286.812
12.01311445236206,1,1,4592,287.000
12.017107248306274,1,1,4629,289.312
12.02111291885376,1,1,4629,289.312
12.025116443634033,1,1,4603,287.688
12.029109954833984,1,1,4593,287.062
12.033122062683105,1,1,4603,287.688
12.037113428115845,1,1,4625,289.062
12.041112661361694,1,1,4630,289.375
12.04511570930481,1,1,4598,287.375
12.04911470413208,1,1,4589,286.812
12.053115844726562,1,1,4589,286.812
12.057111740112305,1,1,4630,289.375
12.061112880706787,1,1,4633,289.562
12.065115690231323,1,1,4610,288.125
12.06911325454712,1,1,4589,286.812
12.07861614227295,1,1,4616,288.500
12.081169843673706,1,1,4632,289.500
12.085121393203735,1,1,4598,287.375
12.089128971099854,1,1,4596,287.250
12.093118906021118,1,1,4593,287.062
12.097104549407959,1,1,4617,288.562
12.101100444793701,1,1,4634,289.625
12.105112791061401,1,1,4610,288.125
12.109112024307251,1,1,4591,286.938
12.113216638565063,1,1,4595,287.188
12.117117881774902,1,1,4620,288.750
12.121245861053467,1,1,4631,289.438
12.125256776809692,1,1,4600,287.500
