Timestamp,LO_plus,LO_minus,Raw_ADC,Voltage_mV
0.01557612419128418,0,0,25753,1609.562
0.016776561737060547,0,0,25753,1609.562
0.017903804779052734,0,0,25732,1608.250
0.021172285079956055,0,0,25709,1606.812
0.025151491165161133,0,0,25688,1605.500
0.029160261154174805,0,0,25672,1604.500
0.03314805030822754,0,0,25661,1603.812
0.03715085983276367,0,0,25650,1603.125
0.041149139404296875,0,0,25635,1602.188
0.045146942138671875,0,0,25619,1601.188
0.04916834831237793,0,0,25609,1600.562
0.05315804481506348,0,0,25604,1600.250
0.05715799331665039,0,0,25598,1599.875
0.06115293502807617,0,0,25588,1599.250
0.0651540756225586,0,0,25576,1598.500
0.06915521621704102,0,0,25570,1598.125
0.07315611839294434,0,0,25567,1597.938
0.07715678215026855,0,0,25564,1597.750
0.08115315437316895,0,0,25556,1597.250
0.08515381813049316,0,0,25547,1596.688
0.08915877342224121,0,0,25542,1596.375
0.0931549072265625,0,0,25542,1596.375
0.09715533256530762,0,0,25540,1596.250
0.10115313529968262,0,0,25534,1595.875
0.10515308380126953,0,0,25526,1595.375
0.10929226875305176,0,0,25523,1595.188
0.11333370208740234,0,0,25523,1595.188
0.11717939376831055,0,0,25523,1595.188
0.12115144729614258,0,0,25518,1594.875
0.12514543533325195,0,0,25510,1594.375
0.12916326522827148,0,0,25507,1594.188
0.1331484317779541,0,0,25508,1594.250
0.13714861869812012,0,0,25509,1594.312
0.14114761352539062,0,0,25504,1594.000
0.14514636993408203,0,0,25497,1593.562
0.14916634559631348,0,0,25495,1593.438
0.15315771102905273,0,0,25496,1593.500
0.15716075897216797,0,0,25497,1593.562
0.16115069389343262,0,0,25493,1593.312
0.16515207290649414,0,0,25487,1592.938
0.16925477981567383,0,0,25484,1592.750
0.17316269874572754,0,0,25486,1592.875
0.1771557331085205,0,0,25487,1592.938
0.1811535358428955,0,0,25483,1592.688
0.18515253067016602,0,0,25476,1592.250
0.18915367126464844,0,0,25474,1592.125
0.19315242767333984,0,0,25476,1592.250
0.19715285301208496,0,0,25478,1592.375
0.20115232467651367,0,0,25474,1592.125
0.2051525115966797,0,0,25468,1591.750
0.2091538906097412,0,0,25466,1591.625
0.21327686309814453,0,0,25468,1591.750
0.21720552444458008,0,0,25469,1591.812
0.22116327285766602,0,0,25466,1591.625
0.22514724731445312,0,0,25460,1591.250
0.22916412353515625,0,0,25458,1591.125
0.2331547737121582,0,0,25459,1591.188
0.23717641830444336,0,0,25461,1591.312
0.24114489555358887,0,0,25459,1591.188
0.2451462745666504,0,0,25451,1590.688
0.24916672706604004,0,0,25449,1590.562
0.2531473636627197,0,0,25452,1590.750
0.25714731216430664,0,0,25453,1590.812
0.26114749908447266,0,0,25451,1590.688
0.26514506340026855,0,0,25445,1590.312
0.2692117691040039,0,0,25442,1590.125
0.2731592655181885,0,0,25444,1590.250
0.27715373039245605,0,0,25446,1590.375
0.28115248680114746,0,0,25444,1590.250
0.2851521968841553,0,0,25438,1589.875
0.28916096687316895,0,0,25436,1589.750
0.2931535243988037,0,0,25437,1589.812
0.2971513271331787,0,0,25439,1589.938
0.30115318298339844,0,0,25438,1589.875
0.30515003204345703,0,0,25431,1589.438
0.30915236473083496,0,0,25429,1589.312
0.31315064430236816,0,0,25430,1589.375
0.317152738571167,0,0,25433,1589.562
0.321152925491333,0,0,25431,1589.438
0.325150728225708,0,0,25425,1589.062
0.32915234565734863,0,0,25424,1589.000
0.33315134048461914,0,0,25427,1589.188
0.33715033531188965,0,0,25425,1589.062
0.34115099906921387,0,0,25419,1588.688
0.3451502323150635,0,0,25416,1588.500
0.3491530418395996,0,0,25418,1588.625
0.3531513214111328,0,0,25420,1588.750
0.35715198516845703,0,0,25419,1588.688
0.36114931106567383,0,0,25413,1588.312
0.36515069007873535,0,0,25410,1588.125
0.3691530227661133,0,0,25412,1588.250
0.373150110244751,0,0,25414,1588.375
0.3771507740020752,0,0,25413,1588.312
0.3811490535736084,0,0,25408,1588.000
0.3851501941680908,0,0,25404,1587.750
0.38915133476257324,0,0,25406,1587.875
0.39314937591552734,0,0,25409,1588.062
0.3971524238586426,0,0,25408,1588.000
0.40114784240722656,0,0,25402,1587.625
0.4051482677459717,0,0,25400,1587.500
0.4091525077819824,0,0,25400,1587.500
0.4131503105163574,0,0,25403,1587.688
0.41715192794799805,0,0,25403,1587.688
0.42114782333374023,0,0,25398,1587.375
0.42514801025390625,0,0,25394,1587.125
0.429152250289917,0,0,25395,1587.188
0.4331490993499756,0,0,25399,1587.438
0.4371507167816162,0,0,25398,1587.375
0.4411449432373047,0,0,25393,1587.062
0.44514966011047363,0,0,25390,1586.875
0.44915223121643066,0,0,25390,1586.875
0.45314884185791016,0,0,25395,1587.188
0.457150936126709,0,0,25393,1587.062
0.46114087104797363,0,0,25388,1586.750
0.46514201164245605,0,0,25385,1586.562
0.469158411026001,0,0,25386,1586.625
0.4731779098510742,0,0,25390,1586.875
0.47722291946411133,0,0,25389,1586.812
0.481217622756958,0,0,25384,1586.500
0.4852151870727539,0,0,25381,1586.312
0.48921966552734375,0,0,25381,1586.312
0.49323201179504395,0,0,25385,1586.562
0.49721646308898926,0,0,25385,1586.562
0.5012156963348389,0,0,25379,1586.188
0.505211591720581,0,0,25376,1586.000
0.5092175006866455,0,0,25377,1586.062
0.5132143497467041,0,0,25381,1586.312
0.5172154903411865,0,0,25380,1586.250
0.5212006568908691,0,0,25376,1586.000
0.525202751159668,0,0,25372,1585.750
0.5292267799377441,0,0,25373,1585.812
0.5332155227661133,0,0,25377,1586.062
0.5372192859649658,0,0,25376,1586.000
0.5412170886993408,0,0,25372,1585.750
0.545212984085083,0,0,25368,1585.500
0.5492165088653564,0,0,25369,1585.562
0.553213357925415,0,0,25373,1585.812
0.5572166442871094,0,0,25373,1585.812
0.5612108707427979,0,0,25368,1585.500
0.5652134418487549,0,0,25364,1585.250
0.5692176818847656,0,0,25365,1585.312
0.5733342170715332,0,0,25369,1585.562
0.5772864818572998,0,0,25368,1585.500
0.5812814235687256,0,0,25365,1585.312
0.585277795791626,0,0,25361,1585.062
0.5892841815948486,0,0,25361,1585.062
0.5932803153991699,0,0,25365,1585.312
0.5972821712493896,0,0,25365,1585.312
0.6012828350067139,0,0,25362,1585.125
0.6052789688110352,0,0,25357,1584.812
0.6092832088470459,0,0,25357,1584.812
0.6132769584655762,0,0,25362,1585.125
0.6172816753387451,0,0,25362,1585.125
0.6212797164916992,0,0,25358,1584.875
0.6252760887145996,0,0,25354,1584.625
0.6292822360992432,0,0,25354,1584.625
0.6332769393920898,0,0,25359,1584.938
0.6372823715209961,0,0,25359,1584.938
0.6412808895111084,0,0,25355,1584.688
0.6452786922454834,0,0,25351,1584.438
0.6492841243743896,0,0,25351,1584.438
0.6532807350158691,0,0,25355,1584.688
0.6572959423065186,0,0,25353,1584.562
0.6612820625305176,0,0,25348,1584.250
0.6652822494506836,0,0,25348,1584.250
0.6692755222320557,0,0,25352,1584.500
0.6733028888702393,0,0,25353,1584.562
0.6772723197937012,0,0,25349,1584.312
0.6812806129455566,0,0,25345,1584.062
0.6852774620056152,0,0,25345,1584.062
0.6892814636230469,0,0,25349,1584.312
0.6932783126831055,0,0,25350,1584.375
0.6972794532775879,0,0,25347,1584.188
0.7012796401977539,0,0,25342,1583.875
0.7052774429321289,0,0,25342,1583.875
0.7092781066894531,0,0,25346,1584.125
0.713275671005249,0,0,25347,1584.188
0.7172791957855225,0,0,25345,1584.062
0.7212810516357422,0,0,25340,1583.750
0.7252790927886963,0,0,25340,1583.750
0.7292819023132324,0,0,25344,1584.000
0.7332816123962402,0,0,25345,1584.062
0.7372832298278809,0,0,25342,1583.875
0.7412803173065186,0,0,25337,1583.562
0.7452962398529053,0,0,25336,1583.500
0.7492854595184326,0,0,25340,1583.750
0.7532792091369629,0,0,25342,1583.875
0.7572808265686035,0,0,25339,1583.688
0.7612788677215576,0,0,25335,1583.438
0.7652788162231445,0,0,25334,1583.375
0.7692794799804688,0,0,25338,1583.625
0.7733144760131836,0,0,25339,1583.688
0.7772834300994873,0,0,25338,1583.625
0.781282901763916,0,0,25333,1583.312
0.7852778434753418,0,0,25332,1583.250
0.7892823219299316,0,0,25335,1583.438
0.7932782173156738,0,0,25337,1583.562
0.7972776889801025,0,0,25335,1583.438
0.8012804985046387,0,0,25331,1583.188
0.8052785396575928,0,0,25330,1583.125
0.8092796802520752,0,0,25333,1583.312
0.8132765293121338,0,0,25335,1583.438
0.8172807693481445,0,0,25333,1583.312
0.8212788105010986,0,0,25328,1583.000
0.82527756690979,0,0,25327,1582.938
0.8292825222015381,0,0,25331,1583.188
0.8332779407501221,0,0,25333,1583.312
0.8372766971588135,0,0,25331,1583.188
0.8412773609161377,0,0,25326,1582.875
0.8452765941619873,0,0,25325,1582.812
0.8492782115936279,0,0,25328,1583.000
0.8532764911651611,0,0,25331,1583.188
0.8572826385498047,0,0,25329,1583.062
0.8612785339355469,0,0,25324,1582.750
0.865276575088501,0,0,25323,1582.688
0.8692805767059326,0,0,25327,1582.938
0.87331223487854,0,0,25329,1583.062
0.8772790431976318,0,0,25327,1582.938
0.8812758922576904,0,0,25322,1582.625
0.8852763175964355,0,0,25321,1582.562
0.8892781734466553,0,0,25324,1582.750
0.8932762145996094,0,0,25327,1582.938
0.8972787857055664,0,0,25326,1582.875
0.901278018951416,0,0,25320,1582.500
0.905278205871582,0,0,25319,1582.438
0.90928053855896,0,0,25323,1582.688
0.9132769107818604,0,0,25325,1582.812
0.9172792434692383,0,0,25324,1582.750
0.9212648868560791,0,0,25318,1582.375
0.9252622127532959,0,0,25318,1582.375
0.9292900562286377,0,0,25321,1582.562
0.9332778453826904,0,0,25324,1582.750
0.9372799396514893,0,0,25323,1582.688
0.9412786960601807,0,0,25317,1582.312
0.9452753067016602,0,0,25316,1582.250
0.9492802619934082,0,0,25319,1582.438
0.9532766342163086,0,0,25322,1582.625
0.957277774810791,0,0,25320,1582.500
0.9612646102905273,0,0,25316,1582.250
0.9652600288391113,0,0,25314,1582.125
0.9692847728729248,0,0,25317,1582.312
0.9732952117919922,0,0,25320,1582.500
0.9772820472717285,0,0,25319,1582.438
0.9812779426574707,0,0,25314,1582.125
0.9852743148803711,0,0,25313,1582.062
0.9892787933349609,0,0,25315,1582.188
0.993274450302124,0,0,25319,1582.438
0.9972794055938721,0,0,25313,1582.062
1.0012965202331543,0,0,25311,1581.938
1.0052759647369385,0,0,25314,1582.125
1.0162181854248047,0,0,25317,1582.312
1.0175049304962158,0,0,25312,1582.000
1.0212695598602295,0,0,25309,1581.812
1.0252597332000732,0,0,25312,1582.000
1.0292694568634033,0,0,25315,1582.188
1.033262014389038,0,0,25315,1582.188
1.0372774600982666,0,0,25310,1581.875
1.0412802696228027,0,0,25309,1581.812
1.0452730655670166,0,0,25311,1581.938
1.0492773056030273,0,0,25314,1582.125
1.0532608032226562,0,0,25313,1582.062
1.0572693347930908,0,0,25309,1581.812
1.0612766742706299,0,0,25307,1581.688
1.065274715423584,0,0,25309,1581.812
1.0692789554595947,0,0,25313,1582.062
1.0732834339141846,0,0,25312,1582.000
1.0772426128387451,0,0,25308,1581.750
1.0812413692474365,0,0,25306,1581.625
1.0852346420288086,0,0,25308,1581.750
1.0892424583435059,0,0,25312,1582.000
1.0932362079620361,0,0,25311,1581.938
1.0972404479980469,0,0,25307,1581.688
1.10123872756958,0,0,25305,1581.562
1.1052370071411133,0,0,25306,1581.625
1.1093478202819824,0,0,25310,1581.875
1.1135764122009277,0,0,25310,1581.875
1.1172780990600586,0,0,25306,1581.625
1.1212332248687744,0,0,25303,1581.438
1.1252248287200928,0,0,25305,1581.562
1.1292650699615479,0,0,25309,1581.812
1.1332271099090576,0,0,25309,1581.812
1.1372261047363281,0,0,25304,1581.500
1.1412246227264404,0,0,25302,1581.375
1.145223617553711,0,0,25304,1581.500
1.1492462158203125,0,0,25308,1581.750
1.1532399654388428,0,0,25308,1581.750
1.1572377681732178,0,0,25304,1581.500
1.1612377166748047,0,0,25301,1581.312
1.165235996246338,0,0,25302,1581.375
1.1692423820495605,0,0,25307,1581.688
1.1732783317565918,0,0,25307,1581.688
1.1772401332855225,0,0,25303,1581.438
1.1812360286712646,0,0,25300,1581.250
1.1852338314056396,0,0,25301,1581.312
1.1892385482788086,0,0,25306,1581.625
1.1932356357574463,0,0,25306,1581.625
1.1972384452819824,0,0,25302,1581.375
1.201237678527832,0,0,25299,1581.188
1.2052350044250488,0,0,25300,1581.250
1.2092328071594238,0,0,25305,1581.562
1.2132437229156494,0,0,25305,1581.562
1.2172369956970215,0,0,25301,1581.312
1.2212355136871338,0,0,25297,1581.062
1.225236177444458,0,0,25299,1581.188
1.229231357574463,0,0,25304,1581.500
1.233222484588623,0,0,25304,1581.500
1.2372314929962158,0,0,25301,1581.312
1.2412374019622803,0,0,25297,1581.062
1.2452361583709717,0,0,25298,1581.125
1.2492358684539795,0,0,25303,1581.438
1.2532336711883545,0,0,25303,1581.438
1.257237434387207,0,0,25300,1581.250
1.2612369060516357,0,0,25297,1581.062
1.265235424041748,0,0,25297,1581.062
1.2692418098449707,0,0,25302,1581.375
1.2733418941497803,0,0,25302,1581.375
1.277278184890747,0,0,25299,1581.188
1.2812755107879639,0,0,25296,1581.000
1.2852935791015625,0,0,25296,1581.000
1.2892789840698242,0,0,25301,1581.312
1.2932605743408203,0,0,25301,1581.312
1.297266960144043,0,0,25299,1581.188
1.3013389110565186,0,0,25295,1580.938
1.305281162261963,0,0,25295,1580.938
1.3092737197875977,0,0,25300,1581.250
1.3134558200836182,0,0,25301,1581.312
1.317420482635498,0,0,25298,1581.125
1.3212811946868896,0,0,25294,1580.875
1.325272560119629,0,0,25295,1580.938
1.3292841911315918,0,0,25299,1581.188
1.3333377838134766,0,0,25300,1581.250
1.3372876644134521,0,0,25293,1580.812
1.3412845134735107,0,0,25294,1580.875
1.3452732563018799,0,0,25298,1581.125
1.349273681640625,0,0,25299,1581.188
1.353273868560791,0,0,25297,1581.062
1.3572709560394287,0,0,25292,1580.750
1.3612730503082275,0,0,25293,1580.812
1.3652691841125488,0,0,25298,1581.125
1.3692727088928223,0,0,25299,1581.188
1.3733768463134766,0,0,25296,1581.000
1.3772389888763428,0,0,25291,1580.688
1.3812365531921387,0,0,25292,1580.750
1.3852314949035645,0,0,25296,1581.000
1.3892362117767334,0,0,25298,1581.125
1.3932316303253174,0,0,25295,1580.938
1.397231101989746,0,0,25291,1580.688
1.401233434677124,0,0,25291,1580.688
1.4052317142486572,0,0,25295,1580.938
1.409236192703247,0,0,25297,1581.062
1.4132328033447266,0,0,25295,1580.938
1.4172351360321045,0,0,25291,1580.688
1.4212367534637451,0,0,25291,1580.688
1.4252336025238037,0,0,25295,1580.938
1.4292333126068115,0,0,25296,1581.000
1.433234691619873,0,0,25294,1580.875
1.43723464012146,0,0,25291,1580.688
1.4412362575531006,0,0,25290,1580.625
1.4452295303344727,0,0,25295,1580.938
1.44923734664917,0,0,25296,1581.000
1.4532318115234375,0,0,25294,1580.875
1.4572346210479736,0,0,25290,1580.625
1.46122145652771,0,0,25289,1580.562
1.4652199745178223,0,0,25294,1580.875
1.4692449569702148,0,0,25296,1581.000
1.4733221530914307,0,0,25294,1580.875
1.4772796630859375,0,0,25289,1580.562
1.4812705516815186,0,0,25289,1580.562
1.4852664470672607,0,0,25292,1580.750
1.4892730712890625,0,0,25295,1580.938
1.49326491355896,0,0,25294,1580.875
1.497270107269287,0,0,25289,1580.562
1.5012693405151367,0,0,25288,1580.500
1.5052673816680908,0,0,25292,1580.750
1.5092661380767822,0,0,25295,1580.938
1.5132694244384766,0,0,25293,1580.812
1.5172703266143799,0,0,25288,1580.500
1.521268606185913,0,0,25288,1580.500
1.5252676010131836,0,0,25291,1580.688
1.5292747020721436,0,0,25294,1580.875
1.5332696437835693,0,0,25293,1580.812
1.53727126121521,0,0,25288,1580.500
1.5412673950195312,0,0,25287,1580.438
1.5452666282653809,0,0,25290,1580.625
1.5492677688598633,0,0,25293,1580.812
1.553269386291504,0,0,25293,1580.812
1.5572710037231445,0,0,25287,1580.438
1.561255931854248,0,0,25287,1580.438
1.5652546882629395,0,0,25290,1580.625
1.5692799091339111,0,0,25293,1580.812
1.5732994079589844,0,0,25292,1580.750
1.577275037765503,0,0,25287,1580.438
1.581272840499878,0,0,25287,1580.438
1.5852675437927246,0,0,25290,1580.625
1.589266300201416,0,0,25293,1580.812
1.593266248703003,0,0,25291,1580.688
1.5972731113433838,0,0,25287,1580.438
1.6012706756591797,0,0,25286,1580.375
1.6052637100219727,0,0,25289,1580.562
1.6092712879180908,0,0,25292,1580.750
1.6132686138153076,0,0,25291,1580.688
1.6172709465026855,0,0,25286,1580.375
1.621265172958374,0,0,25285,1580.312
1.6252644062042236,0,0,25288,1580.500
1.6292691230773926,0,0,25291,1580.688
1.633268117904663,0,0,25291,1580.688
1.637267827987671,0,0,25286,1580.375
1.6412665843963623,0,0,25285,1580.312
1.6452655792236328,0,0,25288,1580.500
1.6492717266082764,0,0,25292,1580.750
1.653266191482544,0,0,25291,1580.688
1.6572716236114502,0,0,25286,1580.375
1.6612706184387207,0,0,25285,1580.312
1.6652657985687256,0,0,25288,1580.500
1.6692640781402588,0,0,25291,1580.688
1.6733062267303467,0,0,25290,1580.625
1.6772725582122803,0,0,25285,1580.312
1.681269645690918,0,0,25287,1580.438
1.6852655410766602,0,0,25291,1580.688
1.6892616748809814,0,0,25290,1580.625
1.6932532787322998,0,0,25286,1580.375
1.6972582340240479,0,0,25284,1580.250
1.7012648582458496,0,0,25286,1580.375
1.705265998840332,0,0,25290,1580.625
1.7092642784118652,0,0,25290,1580.625
1.7132627964019775,0,0,25285,1580.312
1.7172679901123047,0,0,25284,1580.250
1.7212684154510498,0,0,25286,1580.375
1.7252678871154785,0,0,25290,1580.625
1.7292711734771729,0,0,25290,1580.625
1.7332673072814941,0,0,25286,1580.375
1.7372725009918213,0,0,25283,1580.188
1.7412714958190918,0,0,25285,1580.312
1.7452647686004639,0,0,25290,1580.625
1.7492666244506836,0,0,25289,1580.562
1.753265619277954,0,0,25285,1580.312
1.7572681903839111,0,0,25284,1580.250
1.7612674236297607,0,0,25285,1580.312
1.7652671337127686,0,0,25289,1580.562
1.7692711353302002,0,0,25289,1580.562
1.7732810974121094,0,0,25285,1580.312
1.7772693634033203,0,0,25283,1580.188
1.7812714576721191,0,0,25285,1580.312
1.7852680683135986,0,0,25289,1580.562
1.7892708778381348,0,0,25289,1580.562
1.7932674884796143,0,0,25284,1580.250
1.797269344329834,0,0,25282,1580.125
1.8012678623199463,0,0,25285,1580.312
1.8052630424499512,0,0,25289,1580.562
1.8092694282531738,0,0,25289,1580.562
1.8132667541503906,0,0,25285,1580.312
1.8172693252563477,0,0,25282,1580.125
1.8212652206420898,0,0,25284,1580.250
1.825263261795044,0,0,25288,1580.500
1.829270362854004,0,0,25289,1580.562
1.8332648277282715,0,0,25284,1580.250
1.8372688293457031,0,0,25282,1580.125
1.8412678241729736,0,0,25284,1580.250
1.8452656269073486,0,0,25288,1580.500
1.8492696285247803,0,0,25288,1580.500
1.8532638549804688,0,0,25284,1580.250
1.8572664260864258,0,0,25282,1580.125
1.86126708984375,0,0,25283,1580.188
1.865262746810913,0,0,25288,1580.500
1.8692665100097656,0,0,25288,1580.500
1.8732984066009521,0,0,25285,1580.312
1.8772728443145752,0,0,25281,1580.062
1.881265640258789,0,0,25283,1580.188
1.8852636814117432,0,0,25287,1580.438
1.8892698287963867,0,0,25288,1580.500
1.8932664394378662,0,0,25285,1580.312
1.8972680568695068,0,0,25281,1580.062
1.90126371383667,0,0,25282,1580.125
1.9052619934082031,0,0,25287,1580.438
1.9092686176300049,0,0,25288,1580.500
1.9132637977600098,0,0,25284,1580.250
1.9172654151916504,0,0,25281,1580.062
1.9212658405303955,0,0,25282,1580.125
1.9252636432647705,0,0,25286,1580.375
1.9292681217193604,0,0,25287,1580.438
1.9332637786865234,0,0,25284,1580.250
1.9372682571411133,0,0,25281,1580.062
1.9412646293640137,0,0,25281,1580.062
1.9452626705169678,0,0,25287,1580.438
1.949265480041504,0,0,25287,1580.438
1.953263759613037,0,0,25284,1580.250
1.9572691917419434,0,0,25281,1580.062
1.961249589920044,0,0,25282,1580.125
1.9652445316314697,0,0,25286,1580.375
1.9692754745483398,0,0,25287,1580.438
1.9732799530029297,0,0,25284,1580.250
1.9772696495056152,0,0,25280,1580.000
1.9812638759613037,0,0,25281,1580.062
1.9852631092071533,0,0,25286,1580.375
1.9892666339874268,0,0,25287,1580.438
1.9932630062103271,0,0,25284,1580.250
1.9972691535949707,0,0,25280,1580.000
2.0012688636779785,0,0,25281,1580.062
2.0052618980407715,0,0,25285,1580.312
2.009268045425415,0,0,25287,1580.438
2.019923448562622,0,0,25281,1580.062
2.0212180614471436,0,0,25281,1580.062
2.0252952575683594,0,0,25285,1580.312
2.0292882919311523,0,0,25284,1580.250
2.0332844257354736,0,0,25280,1580.000
2.0372700691223145,0,0,25280,1580.000
2.041266679763794,0,0,25285,1580.312
2.0452637672424316,0,0,25287,1580.438
2.0492827892303467,0,0,25284,1580.250
2.0532665252685547,0,0,25280,1580.000
2.0572659969329834,0,0,25280,1580.000
2.061262369155884,0,0,25285,1580.312
2.065258741378784,0,0,25286,1580.375
2.069268226623535,0,0,25284,1580.250
2.0732574462890625,0,0,25280,1580.000
2.0772225856781006,0,0,25279,1579.938
2.0812292098999023,0,0,25284,1580.250
2.0852253437042236,0,0,25286,1580.375
2.089228868484497,0,0,25284,1580.250
2.0932259559631348,0,0,25279,1579.938
2.097226142883301,0,0,25280,1580.000
2.1012251377105713,0,0,25284,1580.250
2.105221748352051,0,0,25286,1580.375
2.1093337535858154,0,0,25283,1580.188
2.1135730743408203,0,0,25280,1580.000
2.1172733306884766,0,0,25279,1579.938
2.1212174892425537,0,0,25283,1580.188
2.1252124309539795,0,0,25286,1580.375
2.1292476654052734,0,0,25284,1580.250
2.1332144737243652,0,0,25279,1579.938
2.1372127532958984,0,0,25279,1579.938
2.1412088871002197,0,0,25283,1580.188
2.1452112197875977,0,0,25286,1580.375
2.1492209434509277,0,0,25284,1580.250
2.153212308883667,0,0,25279,1579.938
2.1572179794311523,0,0,25279,1579.938
2.161222457885742,0,0,25282,1580.125
2.1652071475982666,0,0,25286,1580.375
2.1692354679107666,0,0,25283,1580.188
2.173267126083374,0,0,25279,1579.938
2.1772308349609375,0,0,25279,1579.938
2.181225538253784,0,0,25282,1580.125
2.1852245330810547,0,0,25285,1580.312
2.1892247200012207,0,0,25283,1580.188
2.1932239532470703,0,0,25279,1579.938
2.19722580909729,0,0,25279,1579.938
2.2012219429016113,0,0,25283,1580.188
2.2052273750305176,0,0,25285,1580.312
2.209226608276367,0,0,25283,1580.188
2.2132208347320557,0,0,25279,1579.938
2.2172210216522217,0,0,25279,1579.938
2.2212233543395996,0,0,25282,1580.125
2.225219249725342,0,0,25285,1580.312
2.2292232513427734,0,0,25284,1580.250
2.2332234382629395,0,0,25279,1579.938
2.2372238636016846,0,0,25278,1579.875
2.2412240505218506,0,0,25282,1580.125
2.245222568511963,0,0,25285,1580.312
2.2492263317108154,0,0,25284,1580.250
2.2532238960266113,0,0,25278,1579.875
2.257227659225464,0,0,25279,1579.938
2.2612226009368896,0,0,25281,1580.062
2.2652201652526855,0,0,25284,1580.250
2.2692253589630127,0,0,25284,1580.250
2.273336887359619,0,0,25279,1579.938
2.2772676944732666,0,0,25278,1579.875
2.2812750339508057,0,0,25281,1580.062
2.2852602005004883,0,0,25285,1580.312
2.2892584800720215,0,0,25284,1580.250
2.293259620666504,0,0,25279,1579.938
2.2972679138183594,0,0,25278,1579.875
2.3012609481811523,0,0,25281,1580.062
2.305257797241211,0,0,25285,1580.312
2.3092639446258545,0,0,25284,1580.250
2.313260793685913,0,0,25279,1579.938
2.31726336479187,0,0,25278,1579.875
2.321261405944824,0,0,25281,1580.062
2.3252601623535156,0,0,25285,1580.312
2.3292603492736816,0,0,25284,1580.250
2.3332602977752686,0,0,25279,1579.938
2.3372650146484375,0,0,25278,1579.875
2.3412599563598633,0,0,25281,1580.062
2.345262050628662,0,0,25284,1580.250
2.349262237548828,0,0,25283,1580.188
2.3532586097717285,0,0,25279,1579.938
2.3572611808776855,0,0,25278,1579.875
2.361262321472168,0,0,25280,1580.000
2.36525821685791,0,0,25284,1580.250
2.3692562580108643,0,0,25284,1580.250
2.373296022415161,0,0,25279,1579.938
2.3772666454315186,0,0,25277,1579.812
2.3812575340270996,0,0,25284,1580.250
2.3852555751800537,0,0,25283,1580.188
2.3892629146575928,0,0,25279,1579.938
2.393258571624756,0,0,25277,1579.812
2.3972628116607666,0,0,25280,1580.000
2.401256799697876,0,0,25284,1580.250
2.4052534103393555,0,0,25284,1580.250
2.4092609882354736,0,0,25279,1579.938
2.4132585525512695,0,0,25277,1579.812
2.4172604084014893,0,0,25280,1580.000
2.4212584495544434,0,0,25284,1580.250
2.425257921218872,0,0,25284,1580.250
2.4292590618133545,0,0,25279,1579.938
2.433256149291992,0,0,25278,1579.875
2.4372591972351074,0,0,25279,1579.938
2.441258430480957,0,0,25284,1580.250
2.445254325866699,0,0,25283,1580.188
2.449256181716919,0,0,25279,1579.938
2.4532577991485596,0,0,25277,1579.812
2.4572627544403076,0,0,25279,1579.938
2.4612443447113037,0,0,25284,1580.250
2.465242624282837,0,0,25284,1580.250
2.469266653060913,0,0,25279,1579.938
2.4732706546783447,0,0,25277,1579.812
2.477262258529663,0,0,25279,1579.938
2.4812567234039307,0,0,25283,1580.188
2.485255241394043,0,0,25283,1580.188
2.489255666732788,0,0,25280,1580.000
2.493255853652954,0,0,25277,1579.812
2.4972643852233887,0,0,25279,1579.938
2.5012624263763428,0,0,25283,1580.188
2.5052590370178223,0,0,25283,1580.188
2.509253978729248,0,0,25279,1579.938
2.5132436752319336,0,0,25277,1579.812
2.517249345779419,0,0,25278,1579.875
2.5212550163269043,0,0,25283,1580.188
2.5252556800842285,0,0,25284,1580.250
2.5292539596557617,0,0,25280,1580.000
2.5332417488098145,0,0,25277,1579.812
2.5372507572174072,0,0,25278,1579.875
2.5412585735321045,0,0,25283,1580.188
2.545257568359375,0,0,25283,1580.188
2.5492515563964844,0,0,25280,1580.000
2.5532422065734863,0,0,25277,1579.812
2.5572493076324463,0,0,25278,1579.875
2.5612576007843018,0,0,25283,1580.188
2.5652568340301514,0,0,25283,1580.188
2.569262981414795,0,0,25280,1580.000
2.573293924331665,0,0,25277,1579.812
2.5772624015808105,0,0,25278,1579.875
2.581256628036499,0,0,25283,1580.188
2.5852572917938232,0,0,25283,1580.188
2.5892601013183594,0,0,25280,1580.000
2.5932559967041016,0,0,25277,1579.812
2.597263813018799,0,0,25278,1579.875
2.6013076305389404,0,0,25282,1580.125
2.607661724090576,0,0,25280,1580.000
2.609302520751953,0,0,25280,1580.000
2.6132519245147705,0,0,25276,1579.750
2.6172537803649902,0,0,25278,1579.875
2.621262311935425,0,0,25282,1580.125
2.625272512435913,0,0,25283,1580.188
2.629260301589966,0,0,25280,1580.000
2.6332497596740723,0,0,25276,1579.750
2.6373214721679688,0,0,25277,1579.812
2.641261577606201,0,0,25282,1580.125
2.6452460289001465,0,0,25283,1580.188
2.6492714881896973,0,0,25280,1580.000
2.653254747390747,0,0,25276,1579.750
2.657285690307617,0,0,25277,1579.812
2.6612534523010254,0,0,25282,1580.125
2.6652469635009766,0,0,25283,1580.188
2.6692700386047363,0,0,25280,1580.000
2.6733076572418213,0,0,25276,1579.750
2.677264451980591,0,0,25277,1579.812
2.681248903274536,0,0,25282,1580.125
2.68524432182312,0,0,25283,1580.188
2.68927001953125,0,0,25281,1580.062
2.693260669708252,0,0,25277,1579.812
2.69726300239563,0,0,25277,1579.812
2.701261043548584,0,0,25282,1580.125
2.7052578926086426,0,0,25282,1580.125
2.7092530727386475,0,0,25280,1580.000
2.713254928588867,0,0,25276,1579.750
2.717257022857666,0,0,25277,1579.812
2.7212586402893066,0,0,25281,1580.062
2.725295066833496,0,0,25283,1580.188
2.729268789291382,0,0,25277,1579.812
2.7332592010498047,0,0,25276,1579.750
2.73726224899292,0,0,25281,1580.062
2.741257667541504,0,0,25283,1580.188
2.7452566623687744,0,0,25281,1580.062
2.7492637634277344,0,0,25277,1579.812
2.753262758255005,0,0,25277,1579.812
2.757261276245117,0,0,25281,1580.062
2.7612576484680176,0,0,25283,1580.188
2.7652595043182373,0,0,25281,1580.062
2.7692606449127197,0,0,25276,1579.750
2.773362636566162,0,0,25277,1579.812
2.777228355407715,0,0,25281,1580.062
2.781221866607666,0,0,25283,1580.188
2.7852210998535156,0,0,25281,1580.062
2.789224147796631,0,0,25277,1579.812
2.7932205200195312,0,0,25277,1579.812
2.797219753265381,0,0,25280,1580.000
2.8012216091156006,0,0,25283,1580.188
2.8052210807800293,0,0,25281,1580.062
2.8092243671417236,0,0,25276,1579.750
2.8132174015045166,0,0,25276,1579.750
2.817220687866211,0,0,25280,1580.000
2.821218967437744,0,0,25283,1580.188
2.8252182006835938,0,0,25281,1580.062
2.829223871231079,0,0,25276,1579.750
2.8332207202911377,0,0,25276,1579.750
2.837219715118408,0,0,25280,1580.000
2.841216802597046,0,0,25283,1580.188
2.8452186584472656,0,0,25281,1580.062
2.849224805831909,0,0,25277,1579.812
2.8532204627990723,0,0,25276,1579.750
2.8572189807891846,0,0,25280,1580.000
2.861217498779297,0,0,25283,1580.188
2.865217685699463,0,0,25281,1580.062
2.8692266941070557,0,0,25276,1579.750
2.873302459716797,0,0,25276,1579.750
2.8772640228271484,0,0,25280,1580.000
2.881258964538574,0,0,25283,1580.188
2.8852691650390625,0,0,25281,1580.062
2.889263868331909,0,0,25276,1579.750
2.8932571411132812,0,0,25276,1579.750
2.8972580432891846,0,0,25280,1580.000
2.901254415512085,0,0,25282,1580.125
2.9052562713623047,0,0,25281,1580.062
2.9092624187469482,0,0,25276,1579.750
2.9132556915283203,0,0,25276,1579.750
2.917254686355591,0,0,25280,1580.000
2.9212546348571777,0,0,25283,1580.188
2.9252543449401855,0,0,25282,1580.125
2.929387331008911,0,0,25277,1579.812
2.933274507522583,0,0,25277,1579.812
2.937267780303955,0,0,25279,1579.938
2.941258192062378,0,0,25283,1580.188
2.9452545642852783,0,0,25282,1580.125
2.949253559112549,0,0,25277,1579.812
2.9532580375671387,0,0,25276,1579.750
2.9572596549987793,0,0,25279,1579.938
2.9612557888031006,0,0,25283,1580.188
2.9652507305145264,0,0,25281,1580.062
2.969257354736328,0,0,25276,1579.750
2.9732625484466553,0,0,25276,1579.750
2.977224826812744,0,0,25278,1579.875
2.981217622756958,0,0,25282,1580.125
2.9852163791656494,0,0,25281,1580.062
2.9892196655273438,0,0,25277,1579.812
2.993218183517456,0,0,25275,1579.688
2.9972176551818848,0,0,25278,1579.875
3.001213788986206,0,0,25282,1580.125
3.005204439163208,0,0,25281,1580.062
3.009225368499756,0,0,25276,1579.750
3.0132272243499756,0,0,25276,1579.750
5.441734552383423,0,0,25566,1597.875
5.443054914474487,0,0,25566,1597.875
5.445268630981445,0,0,25547,1596.688
5.449267387390137,0,0,25529,1595.562
5.453256130218506,0,0,25508,1594.250
5.457449674606323,0,0,25489,1593.062
5.461416721343994,0,0,25474,1592.125
5.465271234512329,0,0,25465,1591.562
5.469260215759277,0,0,25455,1590.938
5.473243236541748,0,0,25443,1590.188
5.477326154708862,0,0,25429,1589.312
5.481252431869507,0,0,25421,1588.812
5.485243082046509,0,0,25417,1588.562
5.489262580871582,0,0,25412,1588.250
5.493340730667114,0,0,25404,1587.750
5.497229337692261,0,0,25395,1587.188
5.501208782196045,0,0,25389,1586.812
5.505204200744629,0,0,25388,1586.750
5.509222745895386,0,0,25386,1586.625
5.513214349746704,0,0,25380,1586.250
5.51721715927124,0,0,25372,1585.750
5.521203517913818,0,0,25370,1585.625
5.525205135345459,0,0,25371,1585.688
5.529225826263428,0,0,25370,1585.625
5.533215045928955,0,0,25365,1585.312
5.537216663360596,0,0,25359,1584.938
5.541215419769287,0,0,25357,1584.812
5.545215129852295,0,0,25360,1585.000
5.549217700958252,0,0,25359,1584.938
5.5532166957855225,0,0,25357,1584.812
5.557218790054321,0,0,25350,1584.375
5.561216831207275,0,0,25349,1584.312
5.565214157104492,0,0,25351,1584.438
5.569222688674927,0,0,25352,1584.500
5.5732176303863525,0,0,25350,1584.375
5.5772178173065186,0,0,25344,1584.000
5.58121657371521,0,0,25342,1583.875
5.585214376449585,0,0,25346,1584.125
5.589219093322754,0,0,25346,1584.125
5.5932581424713135,0,0,25345,1584.062
5.597255229949951,0,0,25339,1583.688
5.601253509521484,0,0,25338,1583.625
5.605252504348755,0,0,25341,1583.812
5.60926079750061,0,0,25343,1583.938
5.613255739212036,0,0,25341,1583.812
5.617253541946411,0,0,25336,1583.500
5.62124228477478,0,0,25335,1583.438
5.625239133834839,0,0,25338,1583.625
5.6292619705200195,0,0,25339,1583.688
5.633268356323242,0,0,25338,1583.625
5.637258529663086,0,0,25333,1583.312
5.641252279281616,0,0,25331,1583.188
5.645252466201782,0,0,25335,1583.438
5.649266719818115,0,0,25336,1583.500
5.6532533168792725,0,0,25335,1583.438
5.657263278961182,0,0,25330,1583.125
5.661254167556763,0,0,25329,1583.062
5.665255308151245,0,0,25331,1583.188
5.669250249862671,0,0,25334,1583.375
5.673252105712891,0,0,25333,1583.312
5.67725133895874,0,0,25327,1582.938
5.681253910064697,0,0,25326,1582.875
5.685251235961914,0,0,25331,1583.188
5.689258098602295,0,0,25330,1583.125
5.693218231201172,0,0,25325,1582.812
5.697213411331177,0,0,25323,1582.688
5.7012128829956055,0,0,25326,1582.875
5.705214738845825,0,0,25329,1583.062
5.709219694137573,0,0,25328,1583.000
5.7132158279418945,0,0,25323,1582.688
5.7172160148620605,0,0,25322,1582.625
5.721200704574585,0,0,25324,1582.750
5.725203514099121,0,0,25327,1582.938
5.729293584823608,0,0,25326,1582.875
5.7332165241241455,0,0,25321,1582.562
5.737217426300049,0,0,25320,1582.500
5.741214990615845,0,0,25322,1582.625
5.745215654373169,0,0,25325,1582.812
5.7492194175720215,0,0,25324,1582.750
5.753214359283447,0,0,25319,1582.438
5.757214784622192,0,0,25318,1582.375
5.761216640472412,0,0,25320,1582.500
5.7652153968811035,0,0,25323,1582.688
5.7692155838012695,0,0,25322,1582.625
5.773205518722534,0,0,25318,1582.375
5.7772088050842285,0,0,25316,1582.250
5.781214475631714,0,0,25318,1582.375
5.78521203994751,0,0,25321,1582.562
5.789217710494995,0,0,25320,1582.500
5.7932538986206055,0,0,25316,1582.250
5.797255277633667,0,0,25315,1582.188
5.801252365112305,0,0,25316,1582.250
5.8052496910095215,0,0,25319,1582.438
5.809260368347168,0,0,25319,1582.438
5.8132524490356445,0,0,25314,1582.125
5.817250490188599,0,0,25312,1582.000
5.821251392364502,0,0,25314,1582.125
5.825251579284668,0,0,25318,1582.375
5.829252481460571,0,0,25317,1582.312
5.833250522613525,0,0,25312,1582.000
5.83725380897522,0,0,25311,1581.938
5.8412535190582275,0,0,25312,1582.000
5.845249652862549,0,0,25316,1582.250
5.849254608154297,0,0,25316,1582.250
5.853251695632935,0,0,25311,1581.938
5.857253313064575,0,0,25309,1581.812
5.861250638961792,0,0,25311,1581.938
5.865251302719116,0,0,25315,1582.188
5.86925745010376,0,0,25314,1582.125
5.873250722885132,0,0,25310,1581.875
5.877251863479614,0,0,25308,1581.750
5.881251811981201,0,0,25309,1581.812
5.885251998901367,0,0,25313,1582.062
5.8892552852630615,0,0,25313,1582.062
5.893216609954834,0,0,25309,1581.812
5.897214412689209,0,0,25307,1581.688
5.901209354400635,0,0,25308,1581.750
5.905210971832275,0,0,25312,1582.000
5.909215927124023,0,0,25312,1582.000
5.913212776184082,0,0,25308,1581.750
5.917211532592773,0,0,25305,1581.562
5.921196699142456,0,0,25306,1581.625
5.925202369689941,0,0,25311,1581.938
5.929219007492065,0,0,25311,1581.938
5.933213472366333,0,0,25306,1581.625
5.9372241497039795,0,0,25305,1581.562
5.941213130950928,0,0,25305,1581.562
5.945210933685303,0,0,25309,1581.812
5.949213981628418,0,0,25309,1581.812
5.953210830688477,0,0,25306,1581.625
5.957214593887329,0,0,25302,1581.375
5.961211204528809,0,0,25304,1581.500
5.965212821960449,0,0,25308,1581.750
5.969213247299194,0,0,25308,1581.750
5.9732115268707275,0,0,25305,1581.562
5.977209806442261,0,0,25302,1581.375
5.981206178665161,0,0,25303,1581.438
5.985212802886963,0,0,25307,1581.688
5.989213943481445,0,0,25308,1581.750
5.993252515792847,0,0,25304,1581.500
5.997252702713013,0,0,25301,1581.312
6.001248359680176,0,0,25301,1581.312
6.005248069763184,0,0,25305,1581.562
6.009252309799194,0,0,25306,1581.625
6.013250827789307,0,0,25303,1581.438
6.01724910736084,0,0,25300,1581.250
6.021247386932373,0,0,25300,1581.250
6.0252485275268555,0,0,25304,1581.500
6.029252052307129,0,0,25306,1581.625
6.033246994018555,0,0,25302,1581.375
6.037248849868774,0,0,25298,1581.125
6.041251182556152,0,0,25299,1581.188
6.045250177383423,0,0,25303,1581.438
6.049249887466431,0,0,25304,1581.500
6.053247690200806,0,0,25301,1581.312
6.0572509765625,0,0,25298,1581.125
6.061246871948242,0,0,25298,1581.125
6.065246105194092,0,0,25302,1581.375
6.06924295425415,0,0,25300,1581.250
6.073237895965576,0,0,25297,1581.062
6.077236175537109,0,0,25297,1581.062
6.081247806549072,0,0,25301,1581.312
6.0852460861206055,0,0,25302,1581.375
6.089246988296509,0,0,25299,1581.188
6.093213081359863,0,0,25296,1581.000
6.097212314605713,0,0,25296,1581.000
6.101205587387085,0,0,25301,1581.312
6.1052093505859375,0,0,25301,1581.312
6.109322786331177,0,0,25300,1581.250
6.113430976867676,0,0,25295,1580.938
6.117257356643677,0,0,25296,1581.000
6.121216058731079,0,0,25300,1581.250
6.1252100467681885,0,0,25301,1581.312
6.129216194152832,0,0,25298,1581.125
6.1332080364227295,0,0,25294,1580.875
6.137210130691528,0,0,25294,1580.875
6.1412060260772705,0,0,25299,1581.188
6.145207405090332,0,0,25300,1581.250
6.149211406707764,0,0,25298,1581.125
6.153210401535034,0,0,25293,1580.812
6.157216310501099,0,0,25293,1580.812
6.161211967468262,0,0,25297,1581.062
6.165212392807007,0,0,25299,1581.188
6.16920804977417,0,0,25297,1581.062
6.1732094287872314,0,0,25293,1580.812
6.177209854125977,0,0,25293,1580.812
6.1812074184417725,0,0,25297,1581.062
6.185208559036255,0,0,25299,1581.188
6.189212799072266,0,0,25297,1581.062
6.193249940872192,0,0,25291,1580.688
6.197248458862305,0,0,25292,1580.750
6.201245069503784,0,0,25296,1581.000
6.205244302749634,0,0,25298,1581.125
6.20925235748291,0,0,25296,1581.000
6.2132484912872314,0,0,25292,1580.750
6.217247724533081,0,0,25291,1580.688
6.22124719619751,0,0,25295,1580.938
6.225247859954834,0,0,25297,1581.062
6.229250907897949,0,0,25295,1580.938
6.233246326446533,0,0,25291,1580.688
6.237248182296753,0,0,25290,1580.625
6.241248607635498,0,0,25295,1580.938
6.245244741439819,0,0,25296,1581.000
6.249248504638672,0,0,25295,1580.938
6.25324559211731,0,0,25291,1580.688
6.257249355316162,0,0,25290,1580.625
6.261247396469116,0,0,25294,1580.875
6.2652692794799805,0,0,25296,1581.000
6.269246816635132,0,0,25294,1580.875
6.273235559463501,0,0,25289,1580.562
6.277236700057983,0,0,25289,1580.562
6.281344175338745,0,0,25292,1580.750
6.285253047943115,0,0,25295,1580.938
6.289244651794434,0,0,25293,1580.812
6.2932045459747314,0,0,25289,1580.562
6.297203540802002,0,0,25289,1580.562
6.301388502120972,0,0,25292,1580.750
6.305346727371216,0,0,25295,1580.938
6.309219598770142,0,0,25293,1580.812
6.313199043273926,0,0,25288,1580.500
6.317203521728516,0,0,25288,1580.500
6.321283578872681,0,0,25292,1580.750
6.325216770172119,0,0,25294,1580.875
6.329205274581909,0,0,25293,1580.812
6.33319878578186,0,0,25288,1580.500
6.337206125259399,0,0,25287,1580.438
6.341223478317261,0,0,25291,1580.688
6.345207691192627,0,0,25294,1580.875
6.349205732345581,0,0,25292,1580.750
6.353196620941162,0,0,25288,1580.500
6.3572001457214355,0,0,25287,1580.438
6.361210107803345,0,0,25290,1580.625
6.36520791053772,0,0,25293,1580.812
6.369205474853516,0,0,25292,1580.750
6.373194932937622,0,0,25288,1580.500
6.377197980880737,0,0,25287,1580.438
6.381206750869751,0,0,25289,1580.562
6.385204553604126,0,0,25292,1580.750
6.389208555221558,0,0,25292,1580.750
6.3932106494903564,0,0,25287,1580.438
6.3972084522247314,0,0,25286,1580.375
6.40120530128479,0,0,25289,1580.562
6.405202865600586,0,0,25292,1580.750
6.4092113971710205,0,0,25291,1580.688
6.4132068157196045,0,0,25287,1580.438
6.417206764221191,0,0,25285,1580.312
6.421197175979614,0,0,25288,1580.500
6.425194978713989,0,0,25291,1580.688
6.429211616516113,0,0,25291,1580.688
6.433204650878906,0,0,25286,1580.375
6.442605495452881,0,0,25292,1580.750
6.445231676101685,0,0,25292,1580.750
6.449244260787964,0,0,25291,1580.688
6.453213453292847,0,0,25285,1580.312
6.457210540771484,0,0,25287,1580.438
6.461203575134277,0,0,25291,1580.688
6.465204238891602,0,0,25290,1580.625
6.4692063331604,0,0,25286,1580.375
6.473201751708984,0,0,25285,1580.312
6.477203607559204,0,0,25286,1580.375
6.481202125549316,0,0,25290,1580.625
6.4852025508880615,0,0,25290,1580.625
6.489207744598389,0,0,25285,1580.312
6.493205308914185,0,0,25284,1580.250
6.497206926345825,0,0,25286,1580.375
6.501204252243042,0,0,25290,1580.625
6.505201578140259,0,0,25290,1580.625
6.509207248687744,0,0,25285,1580.312
6.51320481300354,0,0,25284,1580.250
6.517205238342285,0,0,25285,1580.312
6.521201848983765,0,0,25289,1580.562
6.525203704833984,0,0,25289,1580.562
6.529208183288574,0,0,25285,1580.312
6.533202171325684,0,0,25283,1580.188
6.537203550338745,0,0,25285,1580.312
6.5412023067474365,0,0,25289,1580.562
6.545203685760498,0,0,25289,1580.562
6.549207448959351,0,0,25285,1580.312
6.553201913833618,0,0,25283,1580.188
6.557204961776733,0,0,25285,1580.312
6.561202049255371,0,0,25289,1580.562
6.565202236175537,0,0,25289,1580.562
6.569204330444336,0,0,25285,1580.312
6.57320237159729,0,0,25282,1580.125
6.5772058963775635,0,0,25284,1580.250
6.581202745437622,0,0,25288,1580.500
6.585200548171997,0,0,25288,1580.500
6.589207649230957,0,0,25285,1580.312
6.5932416915893555,0,0,25283,1580.188
6.597243070602417,0,0,25284,1580.250
6.601238489151001,0,0,25288,1580.500
6.605239391326904,0,0,25288,1580.500
6.609245777130127,0,0,25285,1580.312
6.6132402420043945,0,0,25282,1580.125
6.6172404289245605,0,0,25283,1580.188
6.6212403774261475,0,0,25287,1580.438
6.6252405643463135,0,0,25288,1580.500
6.629242897033691,0,0,25284,1580.250
6.63323712348938,0,0,25282,1580.125
6.637239456176758,0,0,25282,1580.125
6.641228914260864,0,0,25287,1580.438
6.64522647857666,0,0,25288,1580.500
6.6492486000061035,0,0,25284,1580.250
6.653238773345947,0,0,25281,1580.062
6.657246828079224,0,0,25282,1580.125
6.661241292953491,0,0,25286,1580.375
6.665241003036499,0,0,25287,1580.438
6.669235944747925,0,0,25284,1580.250
6.67323899269104,0,0,25281,1580.062
6.6772379875183105,0,0,25282,1580.125
6.681236982345581,0,0,25287,1580.438
6.685237646102905,0,0,25288,1580.500
6.689246892929077,0,0,25284,1580.250
6.6932008266448975,0,0,25281,1580.062
6.697203874588013,0,0,25282,1580.125
6.701200246810913,0,0,25286,1580.375
6.705198287963867,0,0,25287,1580.438
6.709220886230469,0,0,25284,1580.250
6.713201999664307,0,0,25280,1580.000
6.717204570770264,0,0,25281,1580.062
6.721201658248901,0,0,25286,1580.375
6.72521185874939,0,0,25287,1580.438
6.729259490966797,0,0,25284,1580.250
6.733206033706665,0,0,25280,1580.000
6.737203598022461,0,0,25281,1580.062
6.741201400756836,0,0,25286,1580.375
6.745201826095581,0,0,25286,1580.375
6.749207973480225,0,0,25284,1580.250
6.753201723098755,0,0,25280,1580.000
6.757198333740234,0,0,25281,1580.062
6.761190176010132,0,0,25285,1580.312
6.765190601348877,0,0,25286,1580.375
6.769212007522583,0,0,25284,1580.250
6.773202180862427,0,0,25280,1580.000
6.777204751968384,0,0,25281,1580.062
6.781203269958496,0,0,25285,1580.312
6.7852020263671875,0,0,25286,1580.375
6.789200305938721,0,0,25283,1580.188
6.793240547180176,0,0,25279,1579.938
6.797237157821655,0,0,25280,1580.000
6.801239967346191,0,0,25284,1580.250
6.8052403926849365,0,0,25285,1580.312
6.809242486953735,0,0,25284,1580.250
6.8132405281066895,0,0,25280,1580.000
6.81724214553833,0,0,25280,1580.000
6.821239233016968,0,0,25283,1580.188
6.825238943099976,0,0,25286,1580.375
6.8292436599731445,0,0,25284,1580.250
6.8332414627075195,0,0,25280,1580.000
6.837239503860474,0,0,25280,1580.000
6.8412392139434814,0,0,25286,1580.375
6.845250844955444,0,0,25283,1580.188
6.849241495132446,0,0,25279,1579.938
6.853240728378296,0,0,25279,1579.938
6.857241153717041,0,0,25284,1580.250
6.861236810684204,0,0,25286,1580.375
6.865238666534424,0,0,25283,1580.188
6.869244813919067,0,0,25279,1579.938
6.873239278793335,0,0,25279,1579.938
6.877238750457764,0,0,25283,1580.188
6.881236791610718,0,0,25285,1580.312
6.885236501693726,0,0,25283,1580.188
6.889241933822632,0,0,25279,1579.938
6.89320182800293,0,0,25279,1579.938
6.897202491760254,0,0,25283,1580.188
6.9011993408203125,0,0,25285,1580.312
6.905198812484741,0,0,25283,1580.188
6.909201383590698,0,0,25279,1579.938
6.913199424743652,0,0,25279,1579.938
6.917201519012451,0,0,25283,1580.188
6.921190977096558,0,0,25285,1580.312
6.925189971923828,0,0,25283,1580.188
6.929208755493164,0,0,25279,1579.938
6.933199644088745,0,0,25278,1579.875
6.937201499938965,0,0,25282,1580.125
6.94120192527771,0,0,25285,1580.312
6.9451985359191895,0,0,25283,1580.188
6.949202537536621,0,0,25279,1579.938
6.9532012939453125,0,0,25279,1579.938
6.95720100402832,0,0,25282,1580.125
6.961199522018433,0,0,25284,1580.250
6.965197801589966,0,0,25283,1580.188
6.969202280044556,0,0,25279,1579.938
6.973198652267456,0,0,25278,1579.875
6.977199554443359,0,0,25282,1580.125
6.981199026107788,0,0,25284,1580.250
6.985198020935059,0,0,25283,1580.188
6.989212274551392,0,0,25279,1579.938
6.993237018585205,0,0,25278,1579.875
6.997252702713013,0,0,25281,1580.062
7.001235485076904,0,0,25284,1580.250
7.005235195159912,0,0,25283,1580.188
7.009243488311768,0,0,25279,1579.938
7.013239622116089,0,0,25278,1579.875
7.0172388553619385,0,0,25282,1580.125
7.021235466003418,0,0,25284,1580.250
7.025235652923584,0,0,25283,1580.188
7.02923846244812,0,0,25279,1579.938
7.033238649368286,0,0,25278,1579.875
7.03723931312561,0,0,25280,1580.000
7.041236400604248,0,0,25284,1580.250
7.045235633850098,0,0,25283,1580.188
7.04924201965332,0,0,25278,1579.875
7.053235769271851,0,0,25278,1579.875
7.057235956192017,0,0,25281,1580.062
7.061236143112183,0,0,25284,1580.250
7.0652382373809814,0,0,25283,1580.188
7.069233179092407,0,0,25279,1579.938
7.073233366012573,0,0,25278,1579.875
7.077237129211426,0,0,25280,1580.000
7.081234693527222,0,0,25284,1580.250
7.085232734680176,0,0,25283,1580.188
7.0892298221588135,0,0,25279,1579.938
7.093225717544556,0,0,25278,1579.875
7.097228288650513,0,0,25280,1580.000
7.101235628128052,0,0,25284,1580.250
7.105234384536743,0,0,25283,1580.188
7.109344005584717,0,0,25279,1579.938
7.113540887832642,0,0,25277,1579.812
7.117305040359497,0,0,25280,1580.000
7.121241092681885,0,0,25283,1580.188
7.125234127044678,0,0,25283,1580.188
7.129238605499268,0,0,25279,1579.938
7.1332337856292725,0,0,25278,1579.875
7.137234210968018,0,0,25280,1580.000
7.14123272895813,0,0,25283,1580.188
7.1452319622039795,0,0,25283,1580.188
7.149235725402832,0,0,25279,1579.938
7.153235912322998,0,0,25278,1579.875
7.157236576080322,0,0,25280,1580.000
7.161237955093384,0,0,25283,1580.188
7.16523814201355,0,0,25283,1580.188
7.169235944747925,0,0,25278,1579.875
7.173236131668091,0,0,25278,1579.875
7.177237510681152,0,0,25279,1579.938
7.181233644485474,0,0,25283,1580.188
7.18523097038269,0,0,25283,1580.188
7.189235687255859,0,0,25279,1579.938
7.193200349807739,0,0,25277,1579.812
7.1971962451934814,0,0,25279,1579.938
7.2011940479278564,0,0,25283,1580.188
7.205194473266602,0,0,25283,1580.188
7.209197521209717,0,0,25278,1579.875
7.213193893432617,0,0,25277,1579.812
7.2171950340271,0,0,25279,1579.938
7.221195459365845,0,0,25283,1580.188
7.225194692611694,0,0,25283,1580.188
7.229198217391968,0,0,25279,1579.938
7.23319673538208,0,0,25278,1579.875
7.237199544906616,0,0,25283,1580.188
7.2411956787109375,0,0,25283,1580.188
7.245193719863892,0,0,25279,1579.938
7.249201059341431,0,0,25276,1579.750
7.25319766998291,0,0,25278,1579.875
7.2571961879730225,0,0,25282,1580.125
7.2611963748931885,0,0,25283,1580.188
7.26519250869751,0,0,25279,1579.938
7.269196033477783,0,0,25277,1579.812
7.273197650909424,0,0,25278,1579.875
7.277196407318115,0,0,25283,1580.188
7.281194686889648,0,0,25282,1580.125
7.285195589065552,0,0,25279,1579.938
7.289202928543091,0,0,25277,1579.812
7.293236970901489,0,0,25278,1579.875
7.297236204147339,0,0,25282,1580.125
7.30122184753418,0,0,25283,1580.188
7.305222988128662,0,0,25279,1579.938
7.30924129486084,0,0,25277,1579.812
7.313232898712158,0,0,25277,1579.812
7.317232608795166,0,0,25282,1580.125
7.321233510971069,0,0,25282,1580.125
7.325234651565552,0,0,25279,1579.938
7.329240322113037,0,0,25276,1579.750
7.333231449127197,0,0,25277,1579.812
7.337233543395996,0,0,25282,1580.125
7.341235637664795,0,0,25282,1580.125
7.345234155654907,0,0,25279,1579.938
7.3492348194122314,0,0,25277,1579.812
7.353234529495239,0,0,25277,1579.812
7.357234716415405,0,0,25282,1580.125
7.361231565475464,0,0,25283,1580.188
7.365232467651367,0,0,25279,1579.938
7.36923360824585,0,0,25276,1579.750
7.373229742050171,0,0,25277,1579.812
7.37726354598999,0,0,25281,1580.062
7.381267547607422,0,0,25282,1580.125
7.3852386474609375,0,0,25279,1579.938
7.3892316818237305,0,0,25276,1579.750
7.393186807632446,0,0,25277,1579.812
7.397186756134033,0,0,25281,1580.062
7.401196241378784,0,0,25282,1580.125
7.405196189880371,0,0,25280,1580.000
7.409193277359009,0,0,25276,1579.750
7.413183212280273,0,0,25277,1579.812
7.417188405990601,0,0,25282,1580.125
7.421186685562134,0,0,25282,1580.125
7.425181865692139,0,0,25279,1579.938
7.429198741912842,0,0,25276,1579.750
7.4331934452056885,0,0,25277,1579.812
7.437196493148804,0,0,25281,1580.062
7.446481466293335,0,0,25280,1580.000
7.449229955673218,0,0,25276,1579.750
7.45319938659668,0,0,25276,1579.750
7.45719575881958,0,0,25281,1580.062
7.461193561553955,0,0,25282,1580.125
7.46519136428833,0,0,25280,1580.000
7.469197750091553,0,0,25276,1579.750
7.473192453384399,0,0,25276,1579.750
7.477205276489258,0,0,25280,1580.000
7.48118257522583,0,0,25282,1580.125
7.4851813316345215,0,0,25280,1580.000
7.489476919174194,0,0,25276,1579.750
7.493257284164429,0,0,25276,1579.750
7.497385025024414,0,0,25280,1580.000
7.5013344287872314,0,0,25282,1580.125
7.505211114883423,0,0,25279,1579.938
7.509201765060425,0,0,25276,1579.750
7.513185501098633,0,0,25276,1579.750
7.517266273498535,0,0,25280,1580.000
7.521191358566284,0,0,25281,1580.062
7.525183916091919,0,0,25280,1580.000
7.5291993618011475,0,0,25275,1579.688
7.533192157745361,0,0,25276,1579.750
7.5372090339660645,0,0,25280,1580.000
7.541187286376953,0,0,25281,1580.062
7.545182943344116,0,0,25279,1579.938
7.5492002964019775,0,0,25276,1579.750
7.5531909465789795,0,0,25275,1579.688
7.557193279266357,0,0,25280,1580.000
7.561180353164673,0,0,25282,1580.125
7.565178632736206,0,0,25280,1580.000
7.569201469421387,0,0,25276,1579.750
7.573193311691284,0,0,25275,1579.688
7.577194929122925,0,0,25280,1580.000
7.581190586090088,0,0,25282,1580.125
7.585190296173096,0,0,25280,1580.000
7.589195013046265,0,0,25276,1579.750
7.593190670013428,0,0,25275,1579.688
7.597190618515015,0,0,25279,1579.938
7.60119366645813,0,0,25281,1580.062
7.605191230773926,0,0,25280,1580.000
7.609196901321411,0,0,25276,1579.750
7.613188982009888,0,0,25276,1579.750
7.617193937301636,0,0,25279,1579.938
7.62118935585022,0,0,25281,1580.062
7.625187873840332,0,0,25276,1579.750
7.6291937828063965,0,0,25275,1579.688
7.633188486099243,0,0,25279,1579.938
7.637189865112305,0,0,25282,1580.125
7.641189098358154,0,0,25280,1580.000
7.645189523696899,0,0,25275,1579.688
7.649192571640015,0,0,25275,1579.688
7.653188228607178,0,0,25279,1579.938
7.657196760177612,0,0,25282,1580.125
7.661192178726196,0,0,25281,1580.062
7.665190935134888,0,0,25276,1579.750
7.6691858768463135,0,0,25276,1579.750
7.673187017440796,0,0,25278,1579.875
7.677191257476807,0,0,25281,1580.062
7.681190252304077,0,0,25281,1580.062
7.6851890087127686,0,0,25276,1579.750
7.689194917678833,0,0,25275,1579.688
7.69322943687439,0,0,25278,1579.875
7.69722843170166,0,0,25281,1580.062
7.7012269496917725,0,0,25280,1580.000
7.7052271366119385,0,0,25276,1579.750
7.709233045578003,0,0,25275,1579.688
7.713228940963745,0,0,25278,1579.875
7.717228651046753,0,0,25281,1580.062
7.721224546432495,0,0,25280,1580.000
7.725226640701294,0,0,25276,1579.750
7.729229927062988,0,0,25275,1579.688
7.733233690261841,0,0,25278,1579.875
7.737228155136108,0,0,25281,1580.062
7.7412261962890625,0,0,25280,1580.000
7.7452263832092285,0,0,25276,1579.750
7.749232530593872,0,0,25275,1579.688
7.753223896026611,0,0,25277,1579.812
7.757225751876831,0,0,25281,1580.062
7.761226177215576,0,0,25281,1580.062
7.765228271484375,0,0,25276,1579.750
7.769232511520386,0,0,25275,1579.688
7.773226261138916,0,0,25277,1579.812
7.777225494384766,0,0,25281,1580.062
7.781225204467773,0,0,25280,1580.000
7.7852253913879395,0,0,25276,1579.750
7.789228439331055,0,0,25275,1579.688
7.793191432952881,0,0,25277,1579.812
7.7971885204315186,0,0,25281,1580.062
7.8011767864227295,0,0,25281,1580.062
7.805177688598633,0,0,25276,1579.750
7.809186220169067,0,0,25275,1579.688
7.813177585601807,0,0,25277,1579.812
7.817183494567871,0,0,25281,1580.062
7.821190357208252,0,0,25280,1580.000
7.825190782546997,0,0,25276,1579.750
7.8291916847229,0,0,25275,1579.688
7.833200693130493,0,0,25277,1579.812
7.837189435958862,0,0,25281,1580.062
7.841188192367554,0,0,25280,1580.000
7.845187664031982,0,0,25276,1579.750
7.849202632904053,0,0,25275,1579.688
7.8531880378723145,0,0,25277,1579.812
7.857190132141113,0,0,25281,1580.062
7.8611860275268555,0,0,25281,1580.062
7.8652002811431885,0,0,25276,1579.750
7.869187831878662,0,0,25275,1579.688
7.873185157775879,0,0,25277,1579.812
7.877189874649048,0,0,25281,1580.062
7.881188631057739,0,0,25280,1580.000
7.8851845264434814,0,0,25276,1579.750
7.889189004898071,0,0,25274,1579.625
7.893224477767944,0,0,25276,1579.750
7.89722204208374,0,0,25281,1580.062
7.90122127532959,0,0,25281,1580.062
7.905225038528442,0,0,25276,1579.750
7.909226417541504,0,0,25274,1579.625
7.913224458694458,0,0,25276,1579.750
7.9172279834747314,0,0,25280,1580.000
7.921213388442993,0,0,25280,1580.000
7.92521071434021,0,0,25276,1579.750
7.929229021072388,0,0,25274,1579.625
7.933226108551025,0,0,25276,1579.750
7.937228441238403,0,0,25280,1580.000
7.941226482391357,0,0,25281,1580.062
7.945221900939941,0,0,25277,1579.812
7.94922947883606,0,0,25274,1579.625
7.953226089477539,0,0,25276,1579.750
7.957225799560547,0,0,25280,1580.000
7.961223125457764,0,0,25281,1580.062
7.965225458145142,0,0,25277,1579.812
7.969230651855469,0,0,25274,1579.625
7.973226070404053,0,0,25275,1579.688
7.9772279262542725,0,0,25280,1580.000
7.981221437454224,0,0,25281,1580.062
7.985224723815918,0,0,25277,1579.812
7.989229679107666,0,0,25274,1579.625
7.993225574493408,0,0,25276,1579.750
7.997225999832153,0,0,25280,1580.000
8.001235723495483,0,0,25281,1580.062
8.005223751068115,0,0,25277,1579.812
8.00922966003418,0,0,25275,1579.688
8.013221502304077,0,0,25276,1579.750
8.017223596572876,0,0,25280,1580.000
8.021222591400146,0,0,25277,1579.812
8.02522349357605,0,0,25274,1579.625
8.02922797203064,0,0,25276,1579.750
8.033221006393433,0,0,25280,1580.000
8.037224769592285,0,0,25281,1580.062
8.041224002838135,0,0,25277,1579.812
8.04522180557251,0,0,25274,1579.625
8.049227476119995,0,0,25275,1579.688
8.053221464157104,0,0,25280,1580.000
8.057225704193115,0,0,25281,1580.062
8.061221837997437,0,0,25278,1579.875
8.065219163894653,0,0,25274,1579.625
8.069225549697876,0,0,25275,1579.688
8.073222160339355,0,0,25279,1579.938
8.077224731445312,0,0,25281,1580.062
8.08121943473816,0,0,25277,1579.812
8.085221529006958,0,0,25274,1579.625
8.08922815322876,0,0,25275,1579.688
8.093187093734741,0,0,25280,1580.000
8.097187519073486,0,0,25281,1580.062
8.101182460784912,0,0,25278,1579.875
8.10518217086792,0,0,25274,1579.625
8.109305620193481,0,0,25275,1579.688
8.113394021987915,0,0,25279,1579.938
8.117233753204346,0,0,25281,1580.062
8.121193408966064,0,0,25278,1579.875
8.125184059143066,0,0,25274,1579.625
8.129185676574707,0,0,25275,1579.688
8.133183479309082,0,0,25279,1579.938
8.137183666229248,0,0,25280,1580.000
8.14118218421936,0,0,25279,1579.938
8.145180702209473,0,0,25274,1579.625
8.149187564849854,0,0,25275,1579.688
8.153197765350342,0,0,25279,1579.938
8.157185792922974,0,0,25281,1580.062
8.161186933517456,0,0,25279,1579.938
8.165185928344727,0,0,25274,1579.625
8.169193983078003,0,0,25275,1579.688
8.17319107055664,0,0,25278,1579.875
8.17718768119812,0,0,25280,1580.000
8.18118166923523,0,0,25278,1579.875
8.185184001922607,0,0,25274,1579.625
8.189182996749878,0,0,25275,1579.688
8.19322395324707,0,0,25278,1579.875
8.197221040725708,0,0,25280,1580.000
8.201217889785767,0,0,25278,1579.875
8.205219507217407,0,0,25274,1579.625
8.209228754043579,0,0,25275,1579.688
8.213223934173584,0,0,25279,1579.938
8.217219352722168,0,0,25280,1580.000
8.221219301223755,0,0,25278,1579.875
8.225222826004028,0,0,25275,1579.688
8.229227781295776,0,0,25275,1579.688
8.233221054077148,0,0,25279,1579.938
8.237222909927368,0,0,25280,1580.000
8.241222381591797,0,0,25278,1579.875
8.245219469070435,0,0,25275,1579.688
8.249221086502075,0,0,25274,1579.625
8.253222465515137,0,0,25278,1579.875
8.257253646850586,0,0,25281,1580.062
8.261211633682251,0,0,25279,1579.938
8.265208005905151,0,0,25275,1579.688
8.269227743148804,0,0,25274,1579.625
8.27342963218689,0,0,25278,1579.875
8.27724838256836,0,0,25280,1580.000
8.281211137771606,0,0,25278,1579.875
8.285206079483032,0,0,25274,1579.625
8.289231061935425,0,0,25275,1579.688
8.293185949325562,0,0,25278,1579.875
8.297187805175781,0,0,25281,1580.062
8.301173448562622,0,0,25279,1579.938
8.305185556411743,0,0,25275,1579.688
8.309398412704468,0,0,25275,1579.688
8.313251733779907,0,0,25278,1579.875
8.317194938659668,0,0,25280,1580.000
8.321174621582031,0,0,25279,1579.938
8.32517123222351,0,0,25275,1579.688
8.329195499420166,0,0,25274,1579.625
8.333252191543579,0,0,25278,1579.875
8.337199449539185,0,0,25281,1580.062
8.341172933578491,0,0,25279,1579.938
8.345173835754395,0,0,25275,1579.688
8.349191427230835,0,0,25274,1579.625
8.353192329406738,0,0,25277,1579.812
8.357184886932373,0,0,25280,1580.000
8.361172676086426,0,0,25279,1579.938
8.365170240402222,0,0,25275,1579.688
8.369220733642578,0,0,25274,1579.625
8.373188972473145,0,0,25277,1579.812
8.377187728881836,0,0,25281,1580.062
8.381206750869751,0,0,25279,1579.938
8.385178804397583,0,0,25275,1579.688
8.389193058013916,0,0,25274,1579.625
8.393183946609497,0,0,25277,1579.812
8.397187948226929,0,0,25280,1580.000
8.401179075241089,0,0,25280,1580.000
8.40518069267273,0,0,25274,1579.625
8.409184694290161,0,0,25275,1579.688
8.413182735443115,0,0,25277,1579.812
8.41718316078186,0,0,25280,1580.000
8.421170711517334,0,0,25275,1579.688
8.425170660018921,0,0,25274,1579.625
8.42918848991394,0,0,25277,1579.812
8.433182716369629,0,0,25280,1580.000
8.43718147277832,0,0,25280,1580.000
8.441185235977173,0,0,25275,1579.688
8.450522899627686,0,0,25277,1579.812
8.45322871208191,0,0,25280,1580.000
8.457195281982422,0,0,25280,1580.000
8.461181640625,0,0,25275,1579.688
8.465182065963745,0,0,25274,1579.625
8.469181537628174,0,0,25277,1579.812
8.473179817199707,0,0,25280,1580.000
8.47718095779419,0,0,25280,1580.000
8.481178045272827,0,0,25275,1579.688
8.485181093215942,0,0,25274,1579.625
8.489184379577637,0,0,25276,1579.750
8.493179559707642,0,0,25280,1580.000
8.497183084487915,0,0,25280,1580.000
8.501178979873657,0,0,25276,1579.750
8.505177021026611,0,0,25274,1579.625
8.509180545806885,0,0,25276,1579.750
8.513179779052734,0,0,25280,1580.000
8.517181158065796,0,0,25280,1580.000
8.52116870880127,0,0,25276,1579.750
8.52516770362854,0,0,25274,1579.625
8.529189586639404,0,0,25276,1579.750
8.533179759979248,0,0,25280,1580.000
8.537180185317993,0,0,25279,1579.938
8.541177034378052,0,0,25276,1579.750
8.54517936706543,0,0,25274,1579.625
8.549181938171387,0,0,25276,1579.750
8.553177833557129,0,0,25280,1580.000
8.55717921257019,0,0,25280,1580.000
8.561176776885986,0,0,25275,1579.688
8.565178871154785,0,0,25274,1579.625
8.569180727005005,0,0,25275,1579.688
8.573177576065063,0,0,25280,1580.000
8.577186107635498,0,0,25280,1580.000
8.581176519393921,0,0,25276,1579.750
8.585176229476929,0,0,25274,1579.625
8.589182376861572,0,0,25276,1579.750
8.593217372894287,0,0,25280,1580.000
8.597217082977295,0,0,25280,1580.000
8.601216793060303,0,0,25276,1579.750
8.60521411895752,0,0,25274,1579.625
8.609219551086426,0,0,25276,1579.750
8.613216400146484,0,0,25280,1580.000
8.617221117019653,0,0,25280,1580.000
8.621214151382446,0,0,25276,1579.750
8.625213623046875,0,0,25274,1579.625
8.629219770431519,0,0,25275,1579.688
8.633217811584473,0,0,25280,1580.000
8.637218236923218,0,0,25280,1580.000
8.641219854354858,0,0,25276,1579.750
8.645217180252075,0,0,25273,1579.562
8.649214267730713,0,0,25275,1579.688
8.65320348739624,0,0,25279,1579.938
8.657216787338257,0,0,25280,1580.000
8.66122817993164,0,0,25276,1579.750
8.66521692276001,0,0,25273,1579.562
8.669213771820068,0,0,25275,1579.688
8.673216104507446,0,0,25280,1580.000
8.6772141456604,0,0,25280,1580.000
8.681211709976196,0,0,25276,1579.750
8.68521499633789,0,0,25274,1579.625
8.68922233581543,0,0,25274,1579.625
8.693183422088623,0,0,25280,1580.000
8.697180986404419,0,0,25280,1580.000
8.701175451278687,0,0,25276,1579.750
8.705175399780273,0,0,25273,1579.562
8.70918321609497,0,0,25275,1579.688
8.713178634643555,0,0,25279,1579.938
8.717180490493774,0,0,25280,1580.000
8.721177577972412,0,0,25276,1579.750
8.725173950195312,0,0,25273,1579.562
8.729180574417114,0,0,25274,1579.625
8.733187913894653,0,0,25279,1579.938
8.737182378768921,0,0,25280,1580.000
8.741180658340454,0,0,25276,1579.750
8.745178937911987,0,0,25273,1579.562
8.749181985855103,0,0,25274,1579.625
8.753177404403687,0,0,25279,1579.938
8.757179498672485,0,0,25280,1580.000
8.761174440383911,0,0,25277,1579.812
8.765175580978394,0,0,25273,1579.562
8.769178867340088,0,0,25274,1579.625
8.773176908493042,0,0,25279,1579.938
8.777180194854736,0,0,25280,1580.000
8.781177997589111,0,0,25277,1579.812
8.78517460823059,0,0,25273,1579.562
8.789180517196655,0,0,25274,1579.625
8.793213367462158,0,0,25279,1579.938
8.797217607498169,0,0,25279,1579.938
8.801216840744019,0,0,25277,1579.812
8.805214881896973,0,0,25273,1579.562
8.809218168258667,0,0,25275,1579.688
8.813213586807251,0,0,25279,1579.938
8.817219018936157,0,0,25280,1580.000
8.821215629577637,0,0,25274,1579.625
8.825214624404907,0,0,25274,1579.625
8.829209566116333,0,0,25278,1579.875
8.8332040309906,0,0,25280,1580.000
8.837205171585083,0,0,25278,1579.875
8.841213703155518,0,0,25273,1579.562
8.845213890075684,0,0,25274,1579.625
8.849219799041748,0,0,25279,1579.938
8.853216886520386,0,0,25280,1580.000
8.857216596603394,0,0,25278,1579.875
8.861213207244873,0,0,25274,1579.625
8.865214347839355,0,0,25274,1579.625
8.869218587875366,0,0,25278,1579.875
8.873213052749634,0,0,25280,1580.000
8.877216577529907,0,0,25278,1579.875
8.881215333938599,0,0,25274,1579.625
8.88521409034729,0,0,25274,1579.625
8.889214038848877,0,0,25278,1579.875
8.893179893493652,0,0,25280,1580.000
8.89717960357666,0,0,25278,1579.875
8.901176691055298,0,0,25274,1579.625
8.905175924301147,0,0,25274,1579.625
8.909178733825684,0,0,25278,1579.875
8.913175106048584,0,0,25280,1580.000
8.917176961898804,0,0,25278,1579.875
8.921165943145752,0,0,25274,1579.625
8.925164222717285,0,0,25274,1579.625
8.9291832447052,0,0,25278,1579.875
8.933176755905151,0,0,25280,1580.000
8.937175989151001,0,0,25278,1579.875
8.941176414489746,0,0,25274,1579.625
8.945174932479858,0,0,25274,1579.625
8.949178695678711,0,0,25278,1579.875
8.953175067901611,0,0,25280,1580.000
8.957175493240356,0,0,25279,1579.938
8.961171865463257,0,0,25274,1579.625
8.965173482894897,0,0,25274,1579.625
8.969177961349487,0,0,25278,1579.875
8.973186016082764,0,0,25280,1580.000
8.977176666259766,0,0,25278,1579.875
8.981175661087036,0,0,25274,1579.625
8.985174655914307,0,0,25274,1579.625
8.989186525344849,0,0,25278,1579.875
8.99319839477539,0,0,25280,1580.000
8.997224807739258,0,0,25278,1579.875
9.001214027404785,0,0,25274,1579.625
9.005212783813477,0,0,25274,1579.625
9.009217739105225,0,0,25276,1579.750
9.013212442398071,0,0,25280,1580.000
9.01721715927124,0,0,25279,1579.938
9.021214723587036,0,0,25274,1579.625
9.025211095809937,0,0,25273,1579.562
9.029212236404419,0,0,25277,1579.812
9.033213376998901,0,0,25280,1580.000
9.037209272384644,0,0,25279,1579.938
9.041210889816284,0,0,25274,1579.625
9.045211791992188,0,0,25274,1579.625
9.049218893051147,0,0,25277,1579.812
9.053210258483887,0,0,25280,1580.000
9.05721402168274,0,0,25279,1579.938
9.061215162277222,0,0,25275,1579.688
9.065211296081543,0,0,25273,1579.562
9.06921672821045,0,0,25277,1579.812
9.073214292526245,0,0,25280,1580.000
9.07721209526062,0,0,25279,1579.938
9.081210613250732,0,0,25274,1579.625
9.085211038589478,0,0,25274,1579.625
9.089217185974121,0,0,25277,1579.812
9.09317660331726,0,0,25280,1580.000
9.09717583656311,0,0,25279,1579.938
9.101170539855957,0,0,25275,1579.688
9.105172872543335,0,0,25273,1579.562
9.109304904937744,0,0,25276,1579.750
9.11338186264038,0,0,25280,1580.000
9.117219686508179,0,0,25279,1579.938
9.12117862701416,0,0,25275,1579.688
9.125172138214111,0,0,25273,1579.562
9.129176139831543,0,0,25276,1579.750
9.133163928985596,0,0,25280,1580.000
9.137168407440186,0,0,25279,1579.938
9.141172409057617,0,0,25275,1579.688
9.145172357559204,0,0,25274,1579.625
9.149174213409424,0,0,25276,1579.750
9.153170824050903,0,0,25280,1580.000
9.157174587249756,0,0,25279,1579.938
9.161200284957886,0,0,25275,1579.688
9.165181636810303,0,0,25273,1579.562
9.169176816940308,0,0,25276,1579.750
9.173177242279053,0,0,25280,1580.000
9.177176475524902,0,0,25279,1579.938
9.181173086166382,0,0,25275,1579.688
9.185173988342285,0,0,25273,1579.562
9.1891770362854,0,0,25276,1579.750
9.193212509155273,0,0,25280,1580.000
9.197210788726807,0,0,25279,1579.938
9.201209783554077,0,0,25275,1579.688
9.20521330833435,0,0,25273,1579.562
9.209216594696045,0,0,25275,1579.688
9.213210821151733,0,0,25280,1580.000
9.217215299606323,0,0,25279,1579.938
9.221212148666382,0,0,25275,1579.688
9.225215435028076,0,0,25274,1579.625
9.229215621948242,0,0,25279,1579.938
9.233213424682617,0,0,25280,1580.000
9.23720908164978,0,0,25275,1579.688
9.241208553314209,0,0,25273,1579.562
9.24520993232727,0,0,25276,1579.750
9.249210834503174,0,0,25280,1580.000
9.253259897232056,0,0,25280,1580.000
9.257225036621094,0,0,25276,1579.750
9.261198282241821,0,0,25274,1579.625
9.265196800231934,0,0,25275,1579.688
9.269283056259155,0,0,25280,1580.000
9.273252725601196,0,0,25280,1580.000
9.277220726013184,0,0,25276,1579.750
9.281198501586914,0,0,25274,1579.625
9.28519892692566,0,0,25276,1579.750
9.289240598678589,0,0,25280,1580.000
9.293421268463135,0,0,25279,1579.938
9.297247409820557,0,0,25276,1579.750
9.301162958145142,0,0,25274,1579.625
9.305157899856567,0,0,25275,1579.688
9.30922245979309,0,0,25279,1579.938
9.313196420669556,0,0,25279,1579.938
9.31717586517334,0,0,25276,1579.750
9.321160793304443,0,0,25274,1579.625
9.325159072875977,0,0,25275,1579.688
9.329197883605957,0,0,25279,1579.938
9.333175897598267,0,0,25279,1579.938
9.337170839309692,0,0,25276,1579.750
9.341157913208008,0,0,25274,1579.625
9.34515643119812,0,0,25275,1579.688
9.349177837371826,0,0,25280,1580.000
9.353173017501831,0,0,25280,1580.000
9.357173204421997,0,0,25276,1579.750
9.361159563064575,0,0,25273,1579.562
9.365171432495117,0,0,25275,1579.688
9.369180917739868,0,0,25279,1579.938
9.373173713684082,0,0,25280,1580.000
9.37717318534851,0,0,25276,1579.750
9.381169080734253,0,0,25273,1579.562
9.38516902923584,0,0,25274,1579.625
9.389170408248901,0,0,25279,1579.938
9.393211603164673,0,0,25280,1580.000
9.397211790084839,0,0,25277,1579.812
9.401207208633423,0,0,25273,1579.562
9.40520715713501,0,0,25274,1579.625
9.409215450286865,0,0,25279,1579.938
9.4132080078125,0,0,25280,1580.000
9.417210817337036,0,0,25277,1579.812
9.421197891235352,0,0,25274,1579.625
9.425195932388306,0,0,25274,1579.625
9.429218053817749,0,0,25279,1579.938
9.43320894241333,0,0,25280,1580.000
9.437210321426392,0,0,25276,1579.750
9.44120740890503,0,0,25273,1579.562
9.4452064037323,0,0,25274,1579.625
9.455805540084839,0,0,25277,1579.812
9.457263469696045,0,0,25277,1579.812
9.461219787597656,0,0,25273,1579.562
9.465208292007446,0,0,25274,1579.625
9.469209671020508,0,0,25279,1579.938
9.47320818901062,0,0,25280,1580.000
9.477210521697998,0,0,25277,1579.812
9.481207609176636,0,0,25273,1579.562
9.485204458236694,0,0,25274,1579.625
9.489213466644287,0,0,25279,1579.938
9.493171215057373,0,0,25280,1580.000
9.497169494628906,0,0,25277,1579.812
9.501169681549072,0,0,25273,1579.562
9.505165338516235,0,0,25274,1579.625
9.509167432785034,0,0,25278,1579.875
9.51316785812378,0,0,25281,1580.062
9.51717209815979,0,0,25277,1579.812
9.521170377731323,0,0,25273,1579.562
9.525167465209961,0,0,25274,1579.625
9.529173374176025,0,0,25278,1579.875
9.533168315887451,0,0,25280,1580.000
9.537168025970459,0,0,25277,1579.812
9.541169166564941,0,0,25273,1579.562
9.545168161392212,0,0,25274,1579.625
9.549168109893799,0,0,25279,1579.938
9.553169250488281,0,0,25280,1580.000
9.557169437408447,0,0,25277,1579.812
9.561155080795288,0,0,25273,1579.562
9.56515622138977,0,0,25273,1579.562
9.569178104400635,0,0,25278,1579.875
9.573166608810425,0,0,25280,1580.000
9.57716965675354,0,0,25278,1579.875
9.581167936325073,0,0,25273,1579.562
9.585167646408081,0,0,25274,1579.625
9.58916711807251,0,0,25278,1579.875
9.593205213546753,0,0,25280,1580.000
9.597204208374023,0,0,25278,1579.875
9.601203918457031,0,0,25274,1579.625
9.605205059051514,0,0,25273,1579.562
9.60921311378479,0,0,25277,1579.812
9.61320447921753,0,0,25280,1580.000
9.61720585823059,0,0,25278,1579.875
9.621206521987915,0,0,25274,1579.625
9.625204801559448,0,0,25273,1579.562
9.629203796386719,0,0,25277,1579.812
9.633204460144043,0,0,25278,1579.875
9.637207269668579,0,0,25274,1579.625
9.64120626449585,0,0,25273,1579.562
9.645205020904541,0,0,25277,1579.812
9.649205207824707,0,0,25280,1580.000
9.653191566467285,0,0,25278,1579.875
9.657194137573242,0,0,25274,1579.625
9.661229848861694,0,0,25274,1579.625
9.665212392807007,0,0,25277,1579.812
9.669199228286743,0,0,25280,1580.000
9.673203229904175,0,0,25279,1579.938
9.677204370498657,0,0,25274,1579.625
9.681203842163086,0,0,25274,1579.625
9.685201406478882,0,0,25277,1579.812
9.689208745956421,0,0,25280,1580.000
9.693168640136719,0,0,25278,1579.875
9.697166204452515,0,0,25274,1579.625
9.701165914535522,0,0,25274,1579.625
9.70516562461853,0,0,25277,1579.812
9.7091703414917,0,0,25280,1580.000
9.71316647529602,0,0,25279,1579.938
9.717169523239136,0,0,25274,1579.625
9.721166849136353,0,0,25274,1579.625
9.72516417503357,0,0,25277,1579.812
9.729167699813843,0,0,25280,1580.000
9.733237743377686,0,0,25279,1579.938
9.737171649932861,0,0,25274,1579.625
9.741167306900024,0,0,25273,1579.562
9.745166778564453,0,0,25277,1579.812
9.749171257019043,0,0,25280,1580.000
9.75316834449768,0,0,25279,1579.938
9.757166862487793,0,0,25274,1579.625
9.761164426803589,0,0,25273,1579.562
9.765165567398071,0,0,25276,1579.750
9.769169330596924,0,0,25279,1579.938
9.77316427230835,0,0,25278,1579.875
9.777167081832886,0,0,25274,1579.625
9.781163930892944,0,0,25273,1579.562
9.78516411781311,0,0,25277,1579.812
9.789169311523438,0,0,25280,1580.000
9.793202877044678,0,0,25279,1579.938
9.797206401824951,0,0,25274,1579.625
9.801205158233643,0,0,25273,1579.562
9.805204391479492,0,0,25276,1579.750
9.809211015701294,0,0,25280,1580.000
9.813203811645508,0,0,25279,1579.938
9.81720495223999,0,0,25274,1579.625
9.821206331253052,0,0,25273,1579.562
9.825203657150269,0,0,25276,1579.750
9.829206943511963,0,0,25280,1580.000
9.833203792572021,0,0,25279,1579.938
9.83720874786377,0,0,25275,1579.688
9.841204404830933,0,0,25273,1579.562
9.845203161239624,0,0,25276,1579.750
9.849202871322632,0,0,25279,1579.938
9.853190422058105,0,0,25279,1579.938
9.857195615768433,0,0,25275,1579.688
9.861199617385864,0,0,25273,1579.562
9.865201950073242,0,0,25275,1579.688
9.86920690536499,0,0,25280,1580.000
9.873202323913574,0,0,25279,1579.938
9.877203226089478,0,0,25275,1579.688
9.881191968917847,0,0,25273,1579.562
9.885189294815063,0,0,25275,1579.688
9.889211893081665,0,0,25280,1580.000
9.893165111541748,0,0,25279,1579.938
9.897164821624756,0,0,25275,1579.688
9.901164770126343,0,0,25274,1579.625
9.905176162719727,0,0,25275,1579.688
9.909168720245361,0,0,25279,1579.938
9.913166046142578,0,0,25279,1579.938
9.917166471481323,0,0,25275,1579.688
9.921154260635376,0,0,25273,1579.562
9.925152778625488,0,0,25275,1579.688
9.929169416427612,0,0,25280,1580.000
9.933162689208984,0,0,25279,1579.938
9.937166452407837,0,0,25276,1579.750
9.941166877746582,0,0,25273,1579.562
9.945163011550903,0,0,25275,1579.688
9.949169158935547,0,0,25279,1579.938
9.953165292739868,0,0,25279,1579.938
9.957165241241455,0,0,25275,1579.688
9.961159944534302,0,0,25273,1579.562
9.965161800384521,0,0,25275,1579.688
9.969165325164795,0,0,25280,1580.000
9.973162651062012,0,0,25279,1579.938
9.977164030075073,0,0,25275,1579.688
9.981159925460815,0,0,25273,1579.562
9.985161542892456,0,0,25275,1579.688
9.98916506767273,0,0,25280,1580.000
9.993201732635498,0,0,25279,1579.938
9.997200965881348,0,0,25275,1579.688
10.001199960708618,0,0,25273,1579.562
10.00520133972168,0,0,25275,1579.688
10.009209156036377,0,0,25279,1579.938
10.013201236724854,0,0,25279,1579.938
10.017201662063599,0,0,25276,1579.750
10.021203994750977,0,0,25273,1579.562
10.025198936462402,0,0,25274,1579.625
10.029204845428467,0,0,25279,1579.938
10.033199310302734,0,0,25279,1579.938
10.037204027175903,0,0,25276,1579.750
10.04119873046875,0,0,25273,1579.562
10.04520034790039,0,0,25280,1580.000
10.04920744895935,0,0,25279,1579.938
10.05320429801941,0,0,25276,1579.750
10.057203531265259,0,0,25273,1579.562
10.061200141906738,0,0,25274,1579.625
10.065197944641113,0,0,25279,1579.938
10.069204807281494,0,0,25279,1579.938
10.07319974899292,0,0,25277,1579.812
10.077199935913086,0,0,25273,1579.562
10.081199645996094,0,0,25274,1579.625
10.085198879241943,0,0,25279,1579.938
10.089203596115112,0,0,25279,1579.938
10.093164682388306,0,0,25276,1579.750
10.097164154052734,0,0,25273,1579.562
10.101161479949951,0,0,25275,1579.688
10.105159997940063,0,0,25279,1579.938
10.111822843551636,0,0,25280,1580.000
10.113270998001099,0,0,25276,1579.750
10.1172194480896,0,0,25273,1579.562
10.121165037155151,0,0,25274,1579.625
10.125158786773682,0,0,25279,1579.938
10.129160642623901,0,0,25279,1579.938
10.133157730102539,0,0,25277,1579.812
10.1371591091156,0,0,25274,1579.625
10.141157150268555,0,0,25274,1579.625
10.1451575756073,0,0,25279,1579.938
10.149154424667358,0,0,25279,1579.938
10.153156995773315,0,0,25277,1579.812
10.157158613204956,0,0,25274,1579.625
10.16115951538086,0,0,25274,1579.625
10.165159702301025,0,0,25278,1579.875
10.169157028198242,0,0,25280,1580.000
10.173455953598022,0,0,25277,1579.812
10.177214622497559,0,0,25273,1579.562
10.181404113769531,0,0,25273,1579.562
10.18522310256958,0,0,25279,1579.938
10.189167737960815,0,0,25280,1580.000
10.193154573440552,0,0,25277,1579.812
10.197152853012085,0,0,25273,1579.562
10.201159000396729,0,0,25274,1579.625
10.20515751838684,0,0,25278,1579.875
10.209155559539795,0,0,25280,1580.000
10.213148355484009,0,0,25278,1579.875
10.217153310775757,0,0,25273,1579.562
10.22115969657898,0,0,25274,1579.625
10.22515606880188,0,0,25278,1579.875
10.229159116744995,0,0,25280,1580.000
10.233158349990845,0,0,25277,1579.812
10.237160682678223,0,0,25273,1579.562
10.241171598434448,0,0,25274,1579.625
10.245156526565552,0,0,25278,1579.875
10.24916934967041,0,0,25280,1580.000
10.253175020217896,0,0,25278,1579.875
10.257171154022217,0,0,25274,1579.625
10.261159658432007,0,0,25273,1579.562
10.265154361724854,0,0,25278,1579.875
10.269156694412231,0,0,25280,1580.000
10.273160696029663,0,0,25278,1579.875
10.277260541915894,0,0,25273,1579.562
10.281161785125732,0,0,25274,1579.625
10.285147666931152,0,0,25278,1579.875
10.289369106292725,0,0,25280,1580.000
10.2932870388031,0,0,25278,1579.875
10.297167539596558,0,0,25273,1579.562
10.30115008354187,0,0,25274,1579.625
10.30514645576477,0,0,25278,1579.875
10.309161901473999,0,0,25280,1580.000
10.313152313232422,0,0,25278,1579.875
10.317243337631226,0,0,25273,1579.562
10.321175813674927,0,0,25273,1579.562
10.325149536132812,0,0,25277,1579.812
10.329159259796143,0,0,25280,1580.000
10.333149194717407,0,0,25278,1579.875
10.337160348892212,0,0,25273,1579.562
10.341153383255005,0,0,25274,1579.625
10.345146179199219,0,0,25277,1579.812
10.349154472351074,0,0,25280,1580.000
10.353148937225342,0,0,25278,1579.875
10.357146739959717,0,0,25273,1579.562
10.361146450042725,0,0,25274,1579.625
10.365143299102783,0,0,25278,1579.875
10.369152784347534,0,0,25279,1579.938
10.37314772605896,0,0,25278,1579.875
10.377149820327759,0,0,25274,1579.625
10.38115644454956,0,0,25274,1579.625
10.385151386260986,0,0,25277,1579.812
10.389150619506836,0,0,25280,1580.000
10.393158674240112,0,0,25279,1579.938
10.397155046463013,0,0,25274,1579.625
10.401142120361328,0,0,25273,1579.562
10.405144453048706,0,0,25277,1579.812
10.409159898757935,0,0,25279,1579.938
10.413155794143677,0,0,25278,1579.875
10.41715669631958,0,0,25274,1579.625
10.421146392822266,0,0,25273,1579.562
10.425142049789429,0,0,25276,1579.750
10.429157495498657,0,0,25280,1580.000
10.433159112930298,0,0,25278,1579.875
10.437159299850464,0,0,25274,1579.625
10.441155910491943,0,0,25273,1579.562
10.445153951644897,0,0,25276,1579.750
10.449172973632812,0,0,25279,1579.938
10.458616256713867,0,0,25273,1579.562
10.461186408996582,0,0,25276,1579.750
10.46514892578125,0,0,25279,1579.938
10.469149589538574,0,0,25279,1579.938
10.473146200180054,0,0,25274,1579.625
10.477144241333008,0,0,25273,1579.562
10.481145858764648,0,0,25276,1579.750
10.485142707824707,0,0,25279,1579.938
10.489155530929565,0,0,25279,1579.938
10.493144750595093,0,0,25274,1579.625
10.497144222259521,0,0,25273,1579.562
10.501145839691162,0,0,25276,1579.750
10.505141258239746,0,0,25280,1580.000
10.509148836135864,0,0,25279,1579.938
10.51314640045166,0,0,25274,1579.625
10.517142295837402,0,0,25273,1579.562
10.521143436431885,0,0,25276,1579.750
10.525140762329102,0,0,25280,1580.000
10.529147863388062,0,0,25279,1579.938
10.533144474029541,0,0,25274,1579.625
10.53714370727539,0,0,25273,1579.562
10.541156768798828,0,0,25276,1579.750
10.54515552520752,0,0,25279,1579.938
10.549158096313477,0,0,25279,1579.938
10.553153991699219,0,0,25275,1579.688
10.557157516479492,0,0,25273,1579.562
10.561157703399658,0,0,25276,1579.750
10.565154075622559,0,0,25280,1580.000
10.569154977798462,0,0,25279,1579.938
10.573153495788574,0,0,25275,1579.688
10.577159404754639,0,0,25274,1579.625
10.58115839958191,0,0,25275,1579.688
10.585151195526123,0,0,25279,1579.938
10.589155912399292,0,0,25279,1579.938
10.593192338943481,0,0,25275,1579.688
10.597192764282227,0,0,25273,1579.562
10.601181268692017,0,0,25275,1579.688
10.605175971984863,0,0,25279,1579.938
10.609198808670044,0,0,25279,1579.938
10.613193273544312,0,0,25275,1579.688
10.617196321487427,0,0,25273,1579.562
10.621194839477539,0,0,25274,1579.625
10.625189781188965,0,0,25279,1579.938
10.629193782806396,0,0,25279,1579.938
10.633191585540771,0,0,25275,1579.688
10.637194871902466,0,0,25273,1579.562
10.641189336776733,0,0,25275,1579.688
10.645188331604004,0,0,25280,1580.000
10.649202823638916,0,0,25279,1579.938
10.653192520141602,0,0,25275,1579.688
10.657192945480347,0,0,25273,1579.562
10.661188125610352,0,0,25275,1579.688
10.665190935134888,0,0,25279,1579.938
10.66918396949768,0,0,25279,1579.938
10.673179626464844,0,0,25275,1579.688
10.67717981338501,0,0,25273,1579.562
10.681191444396973,0,0,25275,1579.688
10.68518877029419,0,0,25279,1579.938
10.68919038772583,0,0,25279,1579.938
10.693190813064575,0,0,25276,1579.750
10.69719123840332,0,0,25273,1579.562
10.701191902160645,0,0,25274,1579.625
10.705191135406494,0,0,25279,1579.938
10.709196090698242,0,0,25280,1580.000
10.713189363479614,0,0,25276,1579.750
10.717190027236938,0,0,25273,1579.562
10.721190214157104,0,0,25274,1579.625
10.725186824798584,0,0,25279,1579.938
10.729188203811646,0,0,25280,1580.000
10.733190059661865,0,0,25276,1579.750
10.73719573020935,0,0,25273,1579.562
10.741191387176514,0,0,25274,1579.625
10.745186567306519,0,0,25278,1579.875
10.749191045761108,0,0,25279,1579.938
10.753194332122803,0,0,25276,1579.750
10.757190465927124,0,0,25273,1579.562
10.76118779182434,0,0,25274,1579.625
10.765191316604614,0,0,25279,1579.938
10.769190549850464,0,0,25280,1580.000
10.773188829421997,0,0,25276,1579.750
10.777189493179321,0,0,25273,1579.562
10.781191349029541,0,0,25274,1579.625
10.78519058227539,0,0,25279,1579.938
10.789193630218506,0,0,25279,1579.938
10.793188571929932,0,0,25277,1579.812
10.79718804359436,0,0,25273,1579.562
10.801188468933105,0,0,25275,1579.688
10.805187463760376,0,0,25278,1579.875
10.80918550491333,0,0,25280,1580.000
10.813189268112183,0,0,25277,1579.812
10.817195892333984,0,0,25273,1579.562
10.821191310882568,0,0,25274,1579.625
10.825185298919678,0,0,25279,1579.938
10.829192876815796,0,0,25280,1580.000
10.833189249038696,0,0,25277,1579.812
10.83718991279602,0,0,25274,1579.625
10.841185092926025,0,0,25274,1579.625
10.845188856124878,0,0,25279,1579.938
10.849186658859253,0,0,25280,1580.000
10.853188037872314,0,0,25277,1579.812
10.857188940048218,0,0,25274,1579.625
10.8611900806427,0,0,25274,1579.625
10.865187644958496,0,0,25279,1579.938
10.869184494018555,0,0,25281,1580.062
10.873172998428345,0,0,25278,1579.875
10.877180099487305,0,0,25274,1579.625
10.881190776824951,0,0,25278,1579.875
10.885187864303589,0,0,25280,1580.000
10.889185190200806,0,0,25277,1579.812
10.893186569213867,0,0,25273,1579.562
10.89719271659851,0,0,25274,1579.625
10.901190757751465,0,0,25279,1579.938
10.905186653137207,0,0,25280,1580.000
10.909189462661743,0,0,25278,1579.875
10.913188934326172,0,0,25273,1579.562
10.917187929153442,0,0,25274,1579.625
10.921172142028809,0,0,25278,1579.875
10.925171613693237,0,0,25280,1580.000
10.929201126098633,0,0,25278,1579.875
10.933188199996948,0,0,25274,1579.625
10.937195062637329,0,0,25273,1579.562
10.941189289093018,0,0,25278,1579.875
10.945187091827393,0,0,25280,1580.000
10.949191093444824,0,0,25278,1579.875
10.953187227249146,0,0,25274,1579.625
10.957188606262207,0,0,25274,1579.625
10.961185455322266,0,0,25278,1579.875
10.96518611907959,0,0,25280,1580.000
10.969189405441284,0,0,25278,1579.875
10.973188877105713,0,0,25273,1579.562
10.977193355560303,0,0,25274,1579.625
10.981189966201782,0,0,25278,1579.875
10.98518681526184,0,0,25280,1580.000
10.989190340042114,0,0,25279,1579.938
10.993187189102173,0,0,25274,1579.625
10.99718713760376,0,0,25274,1579.625
11.001187562942505,0,0,25278,1579.875
11.005184650421143,0,0,25281,1580.062
11.009186744689941,0,0,25278,1579.875
11.013188600540161,0,0,25274,1579.625
11.017188787460327,0,0,25273,1579.562
11.021190166473389,0,0,25277,1579.812
11.025187015533447,0,0,25280,1580.000
11.029192209243774,0,0,25279,1579.938
11.0331871509552,0,0,25274,1579.625
11.037189245223999,0,0,25274,1579.625
11.041190147399902,0,0,25277,1579.812
11.045184850692749,0,0,25280,1580.000
11.049190998077393,0,0,25278,1579.875
11.053184986114502,0,0,25274,1579.625
11.05718994140625,0,0,25274,1579.625
11.061188220977783,0,0,25277,1579.812
11.065186023712158,0,0,25280,1580.000
11.069188356399536,0,0,25279,1579.938
11.07318639755249,0,0,25274,1579.625
11.07719087600708,0,0,25274,1579.625
11.081188917160034,0,0,25277,1579.812
11.085185527801514,0,0,25281,1580.062
11.089189052581787,0,0,25280,1580.000
11.093186616897583,0,0,25274,1579.625
11.097188711166382,0,0,25273,1579.562
11.101189374923706,0,0,25277,1579.812
11.105184078216553,0,0,25280,1580.000
11.109297037124634,0,0,25279,1579.938
11.113515377044678,0,0,25274,1579.625
11.11726188659668,0,0,25273,1579.562
11.121193408966064,0,0,25277,1579.812
11.125184774398804,0,0,25280,1580.000
11.12917971611023,0,0,25279,1579.938
11.133175373077393,0,0,25274,1579.625
11.137171983718872,0,0,25273,1579.562
11.141173124313354,0,0,25277,1579.812
11.145172595977783,0,0,25280,1580.000
11.149187326431274,0,0,25280,1580.000
11.153183698654175,0,0,25274,1579.625
11.157185077667236,0,0,25273,1579.562
11.161187410354614,0,0,25276,1579.750
11.165184259414673,0,0,25280,1580.000
11.169176578521729,0,0,25279,1579.938
11.173177480697632,0,0,25274,1579.625
11.177181720733643,0,0,25273,1579.562
11.181185722351074,0,0,25276,1579.750
11.185184478759766,0,0,25280,1580.000
11.189178228378296,0,0,25280,1580.000
11.193146467208862,0,0,25274,1579.625
11.197138786315918,0,0,25274,1579.625
11.201136350631714,0,0,25276,1579.750
11.205132722854614,0,0,25280,1580.000
11.20914912223816,0,0,25279,1579.938
11.213148593902588,0,0,25274,1579.625
11.217144012451172,0,0,25274,1579.625
11.221149921417236,0,0,25275,1579.688
11.22514533996582,0,0,25280,1580.000
11.22914719581604,0,0,25279,1579.938
11.233147859573364,0,0,25275,1579.688
11.237143993377686,0,0,25274,1579.625
11.241146087646484,0,0,25276,1579.750
11.245146989822388,0,0,25281,1580.062
11.249156475067139,0,0,25280,1580.000
11.253137350082397,0,0,25275,1579.688
11.257152795791626,0,0,25274,1579.625
11.26115083694458,0,0,25276,1579.750
11.265145540237427,0,0,25280,1580.000
11.269141674041748,0,0,25280,1580.000
11.273591041564941,0,0,25274,1579.625
11.277186870574951,0,0,25274,1579.625
11.28114914894104,0,0,25275,1579.688
11.285341262817383,0,0,25280,1580.000
11.28929877281189,0,0,25275,1579.688
11.293158531188965,0,0,25275,1579.688
11.297146320343018,0,0,25273,1579.562
11.301153898239136,0,0,25279,1579.938
11.305148839950562,0,0,25280,1580.000
11.309142112731934,0,0,25276,1579.750
11.313405513763428,0,0,25273,1579.562
11.317186832427979,0,0,25275,1579.688
11.321140766143799,0,0,25280,1580.000
11.325133800506592,0,0,25280,1580.000
11.329151630401611,0,0,25276,1579.750
11.333265781402588,0,0,25273,1579.562
11.33715295791626,0,0,25275,1579.688
11.341135025024414,0,0,25280,1580.000
11.345133066177368,0,0,25280,1580.000
11.349153995513916,0,0,25276,1579.750
11.353145360946655,0,0,25273,1579.562
11.357146978378296,0,0,25275,1579.688
11.361136674880981,0,0,25280,1580.000
11.365132570266724,0,0,25280,1580.000
11.36915111541748,0,0,25276,1579.750
11.373146533966064,0,0,25274,1579.625
11.377148151397705,0,0,25275,1579.688
11.381134748458862,0,0,25279,1579.938
11.385130882263184,0,0,25280,1580.000
11.389149904251099,0,0,25276,1579.750
11.39318561553955,0,0,25274,1579.625
11.397183895111084,0,0,25275,1579.688
11.401180505752563,0,0,25279,1579.938
11.405180215835571,0,0,25280,1580.000
11.409184217453003,0,0,25276,1579.750
11.413179636001587,0,0,25274,1579.625
11.417185306549072,0,0,25275,1579.688
11.42116904258728,0,0,25280,1580.000
11.425164461135864,0,0,25280,1580.000
11.429187059402466,0,0,25277,1579.812
11.433182954788208,0,0,25273,1579.562
11.43718433380127,0,0,25275,1579.688
11.44118595123291,0,0,25279,1579.938
11.44517970085144,0,0,25280,1580.000
11.449183464050293,0,0,25276,1579.750
11.453182220458984,0,0,25273,1579.562
11.46391749382019,0,0,25281,1580.062
11.4652259349823,0,0,25281,1580.062
11.469191789627075,0,0,25277,1579.812
11.473181009292603,0,0,25274,1579.625
11.477181911468506,0,0,25274,1579.625
11.481181621551514,0,0,25279,1579.938
11.485177755355835,0,0,25280,1580.000
11.489182472229004,0,0,25277,1579.812
11.49314570426941,0,0,25274,1579.625
11.497144937515259,0,0,25275,1579.688
11.501144647598267,0,0,25279,1579.938
11.505143404006958,0,0,25280,1580.000
11.509144306182861,0,0,25278,1579.875
11.51314115524292,0,0,25274,1579.625
11.517144203186035,0,0,25274,1579.625
11.521143436431885,0,0,25279,1579.938
11.525141477584839,0,0,25279,1579.938
11.529144287109375,0,0,25278,1579.875
11.533140659332275,0,0,25274,1579.625
11.537145853042603,0,0,25275,1579.688
11.541142463684082,0,0,25278,1579.875
11.545140027999878,0,0,25280,1580.000
11.549143314361572,0,0,25278,1579.875
11.553142547607422,0,0,25274,1579.625
11.557144403457642,0,0,25275,1579.688
11.56113886833191,0,0,25279,1579.938
11.56514024734497,0,0,25280,1580.000
11.569143056869507,0,0,25278,1579.875
11.573142766952515,0,0,25273,1579.562
11.577142000198364,0,0,25274,1579.625
11.58114242553711,0,0,25278,1579.875
11.585140228271484,0,0,25281,1580.062
11.5891432762146,0,0,25278,1579.875
11.593181848526001,0,0,25274,1579.625
11.597180604934692,0,0,25275,1579.688
11.601177215576172,0,0,25278,1579.875
11.6051766872406,0,0,25280,1580.000
11.609182119369507,0,0,25278,1579.875
11.613180875778198,0,0,25274,1579.625
11.617180585861206,0,0,25274,1579.625
11.621190547943115,0,0,25278,1579.875
11.625178575515747,0,0,25280,1580.000
11.629184007644653,0,0,25278,1579.875
11.63317608833313,0,0,25274,1579.625
11.637186527252197,0,0,25273,1579.562
11.641165733337402,0,0,25278,1579.875
11.645164728164673,0,0,25280,1580.000
11.649187326431274,0,0,25278,1579.875
11.653188228607178,0,0,25274,1579.625
11.657182455062866,0,0,25274,1579.625
11.66117262840271,0,0,25277,1579.812
11.665165424346924,0,0,25280,1580.000
11.669168472290039,0,0,25278,1579.875
11.673174858093262,0,0,25274,1579.625
11.677181959152222,0,0,25273,1579.562
11.681177854537964,0,0,25278,1579.875
11.685173749923706,0,0,25280,1580.000
11.689180612564087,0,0,25278,1579.875
11.693175554275513,0,0,25274,1579.625
11.697181463241577,0,0,25274,1579.625
11.70117998123169,0,0,25278,1579.875
11.705175399780273,0,0,25280,1580.000
11.709181308746338,0,0,25279,1579.938
11.71317982673645,0,0,25274,1579.625
11.717182159423828,0,0,25274,1579.625
11.721178770065308,0,0,25280,1580.000
11.725173950195312,0,0,25279,1579.938
11.729180574417114,0,0,25274,1579.625
11.733178615570068,0,0,25273,1579.562
11.737180233001709,0,0,25277,1579.812
11.741177320480347,0,0,25280,1580.000
11.745174884796143,0,0,25279,1579.938
11.749181509017944,0,0,25275,1579.688
11.75317907333374,0,0,25274,1579.625
11.75717806816101,0,0,25277,1579.812
11.761176347732544,0,0,25280,1580.000
11.765180110931396,0,0,25279,1579.938
11.769179344177246,0,0,25274,1579.625
11.773174285888672,0,0,25273,1579.562
11.777181148529053,0,0,25277,1579.812
11.781178712844849,0,0,25280,1580.000
11.785178184509277,0,0,25279,1579.938
11.789178609848022,0,0,25275,1579.688
11.793176412582397,0,0,25274,1579.625
11.797176837921143,0,0,25277,1579.812
11.801177263259888,0,0,25280,1580.000
11.805174589157104,0,0,25279,1579.938
11.809179067611694,0,0,25274,1579.625
11.813177824020386,0,0,25273,1579.562
11.817177772521973,0,0,25276,1579.750
11.82118034362793,0,0,25280,1580.000
11.825176000595093,0,0,25279,1579.938
11.829179286956787,0,0,25274,1579.625
11.833176136016846,0,0,25273,1579.562
11.837181329727173,0,0,25276,1579.750
11.841176986694336,0,0,25280,1580.000
11.845187902450562,0,0,25279,1579.938
11.849178314208984,0,0,25274,1579.625
11.853175640106201,0,0,25274,1579.625
11.857179641723633,0,0,25276,1579.750
11.86117672920227,0,0,25279,1579.938
11.865174531936646,0,0,25279,1579.938
11.869181394577026,0,0,25275,1579.688
11.87317681312561,0,0,25273,1579.562
11.877179384231567,0,0,25276,1579.750
11.881176710128784,0,0,25279,1579.938
11.885175466537476,0,0,25279,1579.938
11.88917088508606,0,0,25275,1579.688
11.893161296844482,0,0,25273,1579.562
11.897166967391968,0,0,25276,1579.750
11.90117597579956,0,0,25279,1579.938
11.90517282485962,0,0,25279,1579.938
11.909178733825684,0,0,25275,1579.688
11.913175821304321,0,0,25273,1579.562
11.91718077659607,0,0,25276,1579.750
11.921162128448486,0,0,25279,1579.938
11.925158977508545,0,0,25280,1580.000
11.929181098937988,0,0,25275,1579.688
11.93317723274231,0,0,25273,1579.562
11.937178373336792,0,0,25275,1579.688
11.941176176071167,0,0,25279,1579.938
11.94517207145691,0,0,25279,1579.938
11.949176549911499,0,0,25275,1579.688
11.953173398971558,0,0,25274,1579.625
11.957174301147461,0,0,25275,1579.688
11.961160898208618,0,0,25280,1580.000
11.96515679359436,0,0,25279,1579.938
11.969179630279541,0,0,25275,1579.688
11.973176956176758,0,0,25273,1579.562
11.977179288864136,0,0,25275,1579.688
11.981173753738403,0,0,25279,1579.938
11.985173225402832,0,0,25279,1579.938
11.989176988601685,0,0,25275,1579.688
11.993173360824585,0,0,25273,1579.562
11.997174978256226,0,0,25275,1579.688
12.00117301940918,0,0,25279,1579.938
12.005171298980713,0,0,25279,1579.938
12.009176015853882,0,0,25275,1579.688
12.013173818588257,0,0,25273,1579.562
12.017174482345581,0,0,25275,1579.688
12.021174669265747,0,0,25279,1579.938
12.025174856185913,0,0,25279,1579.938
12.029171228408813,0,0,25276,1579.750
12.03317403793335,0,0,25273,1579.562
12.03719162940979,0,0,25275,1579.688
12.041174173355103,0,0,25279,1579.938
12.045170307159424,0,0,25280,1580.000
12.049176216125488,0,0,25276,1579.750
12.053183317184448,0,0,25273,1579.562
12.057176351547241,0,0,25275,1579.688
12.061172485351562,0,0,25279,1579.938
12.06516981124878,0,0,25279,1579.938
12.069173336029053,0,0,25276,1579.750
12.073171854019165,0,0,25273,1579.562
12.077174425125122,0,0,25274,1579.625
12.08117127418518,0,0,25279,1579.938
12.085172653198242,0,0,25279,1579.938
12.089175939559937,0,0,25276,1579.750
12.093172073364258,0,0,25273,1579.562
12.097174882888794,0,0,25274,1579.625
12.10117793083191,0,0,25278,1579.875
12.105169773101807,0,0,25279,1579.938
12.109291791915894,0,0,25276,1579.750
12.113703489303589,0,0,25273,1579.562
12.117418050765991,0,0,25274,1579.625
12.121179342269897,0,0,25279,1579.938
12.125160455703735,0,0,25279,1579.938
12.129173755645752,0,0,25276,1579.750
12.1331627368927,0,0,25273,1579.562
12.13716173171997,0,0,25274,1579.625
12.141157627105713,0,0,25278,1579.875
12.145155668258667,0,0,25279,1579.938
12.149182319641113,0,0,25273,1579.562
12.153175354003906,0,0,25274,1579.625
12.157176971435547,0,0,25278,1579.875
12.161177396774292,0,0,25279,1579.938
12.16517162322998,0,0,25276,1579.750
12.169167757034302,0,0,25273,1579.562
12.173183917999268,0,0,25273,1579.562
12.177178144454956,0,0,25278,1579.875
12.181174993515015,0,0,25280,1580.000
12.18517255783081,0,0,25276,1579.750
12.189172983169556,0,0,25273,1579.562
12.193136930465698,0,0,25274,1579.625
12.197135925292969,0,0,25278,1579.875
12.201123237609863,0,0,25279,1579.938
12.205122232437134,0,0,25277,1579.812
12.209143161773682,0,0,25272,1579.500
12.213136911392212,0,0,25273,1579.562
12.217136144638062,0,0,25278,1579.875
12.221140623092651,0,0,25279,1579.938
12.22513222694397,0,0,25277,1579.812
12.22913408279419,0,0,25273,1579.562
12.23313570022583,0,0,25273,1579.562
12.237139225006104,0,0,25279,1579.938
12.241136074066162,0,0,25280,1580.000
12.245132207870483,0,0,25277,1579.812
12.249135971069336,0,0,25273,1579.562
12.253134489059448,0,0,25273,1579.562
12.25713300704956,0,0,25278,1579.875
12.261135339736938,0,0,25279,1579.938
12.265157222747803,0,0,25277,1579.812
12.269130229949951,0,0,25273,1579.562
12.273122310638428,0,0,25273,1579.562
12.277126550674438,0,0,25278,1579.875
12.281136274337769,0,0,25280,1580.000
12.285133123397827,0,0,25277,1579.812
12.289128303527832,0,0,25273,1579.562
12.293258666992188,0,0,25273,1579.562
12.297178030014038,0,0,25278,1579.875
12.30129623413086,0,0,25279,1579.938
12.30540132522583,0,0,25277,1579.812
12.309214353561401,0,0,25273,1579.562
12.313162088394165,0,0,25273,1579.562
12.317174673080444,0,0,25277,1579.812
12.32123064994812,0,0,25279,1579.938
12.325179100036621,0,0,25278,1579.875
12.32918095588684,0,0,25273,1579.562
12.33318567276001,0,0,25273,1579.562
12.33717656135559,0,0,25277,1579.812
12.34115743637085,0,0,25279,1579.938
12.345154523849487,0,0,25278,1579.875
12.3491792678833,0,0,25273,1579.562
12.353172063827515,0,0,25273,1579.562
12.35717225074768,0,0,25277,1579.812
12.361155033111572,0,0,25279,1579.938
12.365155458450317,0,0,25278,1579.875
12.36917495727539,0,0,25273,1579.562
12.373172998428345,0,0,25273,1579.562
12.377172708511353,0,0,25277,1579.812
12.381173133850098,0,0,25279,1579.938
12.385170698165894,0,0,25278,1579.875
12.389171123504639,0,0,25273,1579.562
12.39313530921936,0,0,25273,1579.562
12.397135257720947,0,0,25277,1579.812
12.401123285293579,0,0,25279,1579.938
12.405117511749268,0,0,25278,1579.875
12.409138202667236,0,0,25273,1579.562
12.413133382797241,0,0,25273,1579.562
12.417135238647461,0,0,25277,1579.812
12.421123743057251,0,0,25279,1579.938
12.425120830535889,0,0,25278,1579.875
12.429139137268066,0,0,25273,1579.562
12.433132410049438,0,0,25273,1579.562
12.437135457992554,0,0,25276,1579.750
12.441134691238403,0,0,25279,1579.938
12.445132493972778,0,0,25278,1579.875
12.449135065078735,0,0,25273,1579.562
12.453131675720215,0,0,25273,1579.562
12.457131385803223,0,0,25276,1579.750
12.466491222381592,0,0,25273,1579.562
12.4691801071167,0,0,25273,1579.562
12.473137378692627,0,0,25272,1579.500
12.4771409034729,0,0,25276,1579.750
12.48113226890564,0,0,25278,1579.875
12.485129356384277,0,0,25278,1579.875
12.489135265350342,0,0,25273,1579.562
12.49313473701477,0,0,25273,1579.562
12.497134685516357,0,0,25276,1579.750
12.501133680343628,0,0,25278,1579.875
12.505130529403687,0,0,25278,1579.875
12.509133338928223,0,0,25273,1579.562
12.51313042640686,0,0,25272,1579.500
12.517132997512817,0,0,25275,1579.688
12.52112889289856,0,0,25279,1579.938
12.525129079818726,0,0,25278,1579.875
12.52912950515747,0,0,25274,1579.625
12.533129692077637,0,0,25272,1579.500
12.53713059425354,0,0,25275,1579.688
12.541134357452393,0,0,25278,1579.875
12.54512882232666,0,0,25278,1579.875
12.549133777618408,0,0,25273,1579.562
12.553127527236938,0,0,25273,1579.562
12.557132482528687,0,0,25275,1579.688
12.56113076210022,0,0,25279,1579.938
12.565128564834595,0,0,25278,1579.875
12.56913161277771,0,0,25274,1579.625
12.573130369186401,0,0,25273,1579.562
12.577131748199463,0,0,25279,1579.938
12.58113145828247,0,0,25279,1579.938
12.585128545761108,0,0,25274,1579.625
12.589131832122803,0,0,25272,1579.500
12.593168020248413,0,0,25275,1579.688
12.59717082977295,0,0,25278,1579.875
12.601167440414429,0,0,25279,1579.938
12.60516357421875,0,0,25274,1579.625
12.609172344207764,0,0,25272,1579.500
12.613167524337769,0,0,25275,1579.688
12.61716890335083,0,0,25279,1579.938
12.621167421340942,0,0,25279,1579.938
12.625164031982422,0,0,25274,1579.625
12.629170417785645,0,0,25273,1579.562
12.633167028427124,0,0,25274,1579.625
12.637167930603027,0,0,25279,1579.938
12.64116883277893,0,0,25278,1579.875
12.645165920257568,0,0,25275,1579.688
12.649170398712158,0,0,25273,1579.562
12.65316390991211,0,0,25275,1579.688
12.657166719436646,0,0,25279,1579.938
12.661174297332764,0,0,25279,1579.938
12.665165424346924,0,0,25275,1579.688
12.66916036605835,0,0,25272,1579.500
12.673163652420044,0,0,25274,1579.625
12.677172183990479,0,0,25279,1579.938
12.681152105331421,0,0,25278,1579.875
12.685150861740112,0,0,25275,1579.688
12.689173698425293,0,0,25273,1579.562
12.693167924880981,0,0,25274,1579.625
12.69717288017273,0,0,25279,1579.938
12.701168537139893,0,0,25279,1579.938
12.705166339874268,0,0,25275,1579.688
12.709173440933228,0,0,25273,1579.562
12.71316933631897,0,0,25274,1579.625
12.717170000076294,0,0,25278,1579.875
12.721167087554932,0,0,25279,1579.938
12.72516655921936,0,0,25275,1579.688
12.729169607162476,0,0,25273,1579.562
12.733168840408325,0,0,25274,1579.625
12.737172842025757,0,0,25279,1579.938
12.741169214248657,0,0,25279,1579.938
12.74516487121582,0,0,25275,1579.688
12.749171257019043,0,0,25273,1579.562
12.75316596031189,0,0,25274,1579.625
12.757168292999268,0,0,25278,1579.875
12.7611665725708,0,0,25279,1579.938
12.765161752700806,0,0,25276,1579.750
12.769184350967407,0,0,25273,1579.562
12.773157596588135,0,0,25274,1579.625
12.777161598205566,0,0,25278,1579.875
12.781167984008789,0,0,25279,1579.938
12.78516435623169,0,0,25276,1579.750
12.789482593536377,0,0,25273,1579.562
12.793154954910278,0,0,25274,1579.625
12.797131538391113,0,0,25278,1579.875
12.801116704940796,0,0,25279,1579.938
12.805116891860962,0,0,25276,1579.750
12.809134244918823,0,0,25272,1579.500
12.813127994537354,0,0,25273,1579.562
12.817130327224731,0,0,25278,1579.875
12.821310997009277,0,0,25279,1579.938
12.825215816497803,0,0,25276,1579.750
