Timestamp,LO_plus,LO_minus,Raw_ADC,Voltage_mV
0.015590190887451172,0,0,32767,2047.938
0.016796588897705078,0,0,32767,2047.938
0.01792740821838379,0,0,32767,2047.938
0.0211946964263916,0,0,28543,1783.938
0.02517557144165039,0,0,27883,1742.688
0.029172182083129883,0,0,32767,2047.938
0.0331730842590332,0,0,32072,2004.500
0.037171125411987305,0,0,29224,1826.500
0.04117321968078613,0,0,27205,1700.312
0.04517006874084473,0,0,27590,1724.375
0.04916882514953613,0,0,28945,1809.062
0.05318284034729004,0,0,25405,1587.812
0.05717778205871582,0,0,24608,1538.000
0.06118130683898926,0,1,25682,1605.125
0.06517648696899414,0,0,27410,1713.125
0.06917667388916016,0,0,32767,2047.938
0.07317733764648438,0,0,32767,2047.938
0.07717776298522949,0,0,32156,2009.750
0.08117961883544922,1,1,28500,1781.250
0.08517694473266602,0,0,28807,1800.438
0.08917713165283203,0,0,32767,2047.938
0.09317779541015625,0,0,32767,2047.938
0.09717702865600586,0,0,32767,2047.938
0.10117745399475098,1,1,32117,2007.312
0.10517549514770508,0,0,26953,1684.562
0.10917377471923828,0,0,29621,1851.312
0.11317896842956543,0,0,30706,1919.125
0.11717700958251953,0,0,29202,1825.125
0.12117886543273926,1,1,27472,1717.000
0.12517523765563965,0,0,26918,1682.375
0.12917566299438477,0,0,30135,1883.438
0.1331782341003418,0,0,30442,1902.625
0.1371760368347168,0,0,28655,1790.938
0.14117860794067383,1,1,27141,1696.312
0.14517617225646973,0,0,27345,1709.062
0.14917540550231934,0,0,32767,2047.938
0.15317416191101074,0,0,32767,2047.938
0.15717768669128418,0,0,32388,2024.250
0.16117525100708008,1,1,27729,1733.062
0.16516876220703125,0,0,26528,1658.000
0.16916799545288086,0,0,32767,2047.938
0.17317938804626465,0,0,32767,2047.938
0.17717623710632324,0,0,32767,2047.938
0.18117880821228027,1,1,30540,1908.750
0.18517422676086426,0,0,26471,1654.438
0.18932104110717773,0,0,32767,2047.938
0.19322538375854492,0,0,32767,2047.938
0.19717836380004883,0,0,32767,2047.938
0.20117688179016113,1,1,29209,1825.562
0.2051687240600586,0,0,24913,1557.062
0.2091681957244873,0,0,22612,1413.250
0.2131791114807129,0,0,21664,1354.000
0.21716618537902832,0,0,23430,1464.375
0.22117924690246582,1,1,25472,1592.000
0.22517681121826172,0,0,26437,1652.312
0.22917485237121582,0,0,27899,1743.688
0.2331712245941162,0,0,26982,1686.375
0.23718881607055664,0,0,26086,1630.375
0.24117231369018555,1,1,26005,1625.312
0.24516844749450684,0,0,26157,1634.812
0.24916696548461914,0,0,28448,1778.000
0.2531702518463135,0,0,29601,1850.062
0.2571682929992676,0,0,28525,1782.812
0.26117682456970215,1,1,27181,1698.812
0.26517510414123535,0,0,26262,1641.375
0.26917481422424316,0,0,27500,1718.750
0.273179292678833,0,0,28482,1780.125
0.2771744728088379,0,0,27925,1745.312
0.28117918968200684,1,0,27096,1693.500
0.2851741313934326,0,0,26675,1667.188
0.28917384147644043,0,0,32767,2047.938
0.29317736625671387,0,0,32767,2047.938
0.2971775531768799,0,0,32767,2047.938
0.3012533187866211,0,0,29272,1829.500
0.30518341064453125,0,0,25561,1597.562
0.30917906761169434,0,0,26484,1655.250
0.3137543201446533,0,0,26581,1661.312
0.31728100776672363,0,0,26323,1645.188
0.3211970329284668,1,0,26326,1645.375
0.3251674175262451,0,0,26263,1641.438
0.32916712760925293,0,0,26463,1653.938
0.3331742286682129,0,0,23672,1479.500
0.33716726303100586,0,0,23315,1457.188
0.3411693572998047,1,0,24883,1555.188
0.3451666831970215,0,0,26114,1632.125
0.3491652011871338,0,0,29909,1869.312
0.3531675338745117,0,0,32767,2047.938
0.3571665287017822,0,0,31166,1947.875
0.36116790771484375,1,1,28256,1766.000
0.36516499519348145,0,0,26353,1647.062
0.36916589736938477,0,0,32090,2005.625
0.37317395210266113,0,0,32767,2047.938
0.3771858215332031,0,0,32767,2047.938
0.381178617477417,0,0,29735,1858.438
0.38517189025878906,0,0,26100,1631.250
0.3891725540161133,0,0,29475,1842.188
0.3931748867034912,0,0,32767,2047.938
0.397172212600708,0,0,31496,1968.500
0.40117383003234863,0,0,28219,1763.688
0.40517187118530273,0,0,26062,1628.875
0.40917253494262695,0,0,28661,1791.312
0.41316795349121094,0,0,31634,1977.125
0.41716527938842773,0,0,30001,1875.062
0.4211728572845459,1,0,27579,1723.688
0.4251725673675537,0,0,26002,1625.125
0.4291720390319824,0,0,27052,1690.750
0.43317198753356934,0,0,29073,1817.062
0.43717241287231445,0,0,28676,1792.250
0.441176176071167,1,0,27398,1712.375
0.4451718330383301,0,0,26264,1641.500
0.4491713047027588,0,0,26228,1639.250
0.4531741142272949,0,0,25641,1602.562
0.4571719169616699,0,0,25284,1580.250
0.46117305755615234,1,1,25744,1609.000
0.46517062187194824,0,0,26049,1628.062
0.46917152404785156,0,0,30483,1905.188
0.4731738567352295,0,0,32767,2047.938
0.4771716594696045,0,0,32767,2047.938
0.48117566108703613,1,0,29894,1868.375
0.4851703643798828,0,0,26189,1636.812
0.48917317390441895,0,0,26572,1660.750
0.49318528175354004,0,0,27346,1709.125
0.49717068672180176,0,0,26724,1670.250
0.501173734664917,0,0,26307,1644.188
0.5051710605621338,0,0,26001,1625.062
0.5091712474822998,0,0,27410,1713.125
0.5131683349609375,0,0,31437,1964.812
0.5172743797302246,0,0,31328,1958.000
0.5212428569793701,1,0,28814,1800.875
0.525238037109375,0,0,26539,1658.688
0.529238224029541,0,0,28065,1754.062
0.533240556716919,0,0,32767,2047.938
0.5372350215911865,0,0,32767,2047.938
0.5412347316741943,1,0,29781,1861.312
0.5452353954315186,0,0,26466,1654.125
0.5492353439331055,0,0,27313,1707.062
0.5532395839691162,0,0,32767,2047.938
0.5572366714477539,0,0,32767,2047.938
0.5612397193908691,1,1,29503,1843.938
0.5652337074279785,0,0,26489,1655.562
0.5692355632781982,0,0,27405,1712.812
0.5732381343841553,0,0,32007,2000.438
0.5772342681884766,0,0,31300,1956.250
0.5812361240386963,1,1,28390,1774.375
0.5852348804473877,0,0,26104,1631.500
0.5892350673675537,0,0,32767,2047.938
0.5932366847991943,0,0,32767,2047.938
0.5972363948822021,0,0,32767,2047.938
0.6012418270111084,1,0,26660,1666.250
0.6052365303039551,0,0,24769,1548.062
0.6092338562011719,0,0,25152,1572.000
0.6132380962371826,0,0,24285,1517.812
0.61728835105896,0,0,24602,1537.625
0.621307373046875,1,1,25189,1574.312
0.6253032684326172,0,0,27099,1693.688
0.6293008327484131,0,0,32767,2047.938
0.6333012580871582,0,0,32767,2047.938
0.6373002529144287,0,0,32767,2047.938
0.6413059234619141,1,1,27223,1701.438
0.6453001499176025,0,0,26479,1654.938
0.649301290512085,0,0,32767,2047.938
0.653301477432251,0,0,32767,2047.938
0.6572864055633545,0,0,30862,1928.875
0.6612870693206787,1,1,26474,1654.625
0.6652877330780029,0,0,26483,1655.188
0.6692845821380615,0,0,32767,2047.938
0.6733038425445557,0,0,32767,2047.938
0.6772997379302979,0,0,32767,2047.938
0.6813035011291504,1,1,27160,1697.500
0.6852972507476807,0,0,26723,1670.188
0.6893002986907959,0,0,32767,2047.938
0.6933045387268066,0,0,32767,2047.938
0.6972973346710205,0,0,32767,2047.938
0.7012991905212402,1,1,26546,1659.125
0.705298900604248,0,0,25191,1574.438
0.709298849105835,0,0,30354,1897.125
0.7133004665374756,0,0,28797,1799.812
0.7173008918762207,0,0,26013,1625.812
0.7213058471679688,1,1,24547,1534.188
0.7252967357635498,0,0,25466,1591.625
0.7292962074279785,0,0,32767,2047.938
0.7333018779754639,0,0,32767,2047.938
0.7372996807098389,0,0,31429,1964.312
0.7413020133972168,1,0,26482,1655.125
0.7453145980834961,0,0,24896,1556.000
0.7492992877960205,0,0,25670,1604.375
0.7532997131347656,0,0,23136,1446.000
0.7573015689849854,0,0,22822,1426.375
0.7613060474395752,1,0,23824,1489.000
0.76529860496521,0,0,25609,1600.562
0.7692999839782715,0,0,31793,1987.062
0.7733016014099121,0,0,31956,1997.250
0.7772958278656006,0,0,28453,1778.312
0.7812991142272949,1,1,25557,1597.312
0.785297155380249,0,0,25816,1613.500
0.789297342300415,0,0,32767,2047.938
0.7932977676391602,0,0,32767,2047.938
0.7972977161407471,0,0,32718,2044.875
0.8013021945953369,1,1,26384,1649.000
0.8052957057952881,0,0,24201,1512.562
0.8092963695526123,0,0,29834,1864.625
0.8133001327514648,0,0,31482,1967.625
0.8172955513000488,0,0,28731,1795.688
0.8212993144989014,1,1,25817,1613.562
0.8252978324890137,0,0,24626,1539.125
0.8292958736419678,0,0,27350,1709.375
0.8332955837249756,0,0,27738,1733.625
0.8372974395751953,0,0,26388,1649.250
0.8413043022155762,1,1,25202,1575.125
0.8452961444854736,0,0,24924,1557.750
0.8492941856384277,0,0,28663,1791.438
0.8532998561859131,0,0,28238,1764.875
0.8572990894317627,0,0,26143,1633.938
0.8613002300262451,1,1,24865,1554.062
0.8652994632720947,0,0,24655,1540.938
0.8692951202392578,0,0,26819,1676.188
0.8733000755310059,0,0,26028,1626.750
0.8772962093353271,0,0,24964,1560.250
0.8812944889068604,1,1,24670,1541.875
0.8852841854095459,0,0,25061,1566.312
0.889284610748291,0,0,32767,2047.938
0.8933045864105225,0,0,32767,2047.938
0.8972985744476318,0,0,32196,2012.250
0.9013040065765381,1,1,27011,1688.188
0.9052977561950684,0,0,24299,1518.688
0.9092979431152344,0,0,24452,1528.250
0.9132905006408691,0,0,23715,1482.188
0.9172828197479248,0,0,23822,1488.875
0.9213025569915771,1,1,24506,1531.625
0.9252958297729492,0,0,25048,1565.500
0.9292950630187988,0,0,30009,1875.562
0.9333004951477051,0,0,30665,1916.562
0.9372954368591309,0,0,27742,1733.875
0.9412949085235596,1,1,25420,1588.750
0.9452953338623047,0,0,24592,1537.000
0.9492943286895752,0,0,32767,2047.938
0.9532990455627441,0,0,32767,2047.938
0.9572961330413818,0,0,32767,2047.938
0.9613018035888672,1,1,32767,2047.938
0.9652955532073975,0,0,25827,1614.188
0.9692964553833008,0,0,28186,1761.625
0.9733061790466309,0,0,32767,2047.938
0.977294921875,0,0,31004,1937.750
0.9813001155853271,1,1,27174,1698.375
0.9852964878082275,0,0,24567,1535.438
0.9892961978912354,0,0,28411,1775.688
0.9932966232299805,0,0,31242,1952.625
0.9972991943359375,0,0,28976,1811.000
1.0013246536254883,1,1,26012,1625.750
1.0052964687347412,0,0,24276,1517.250
1.0162956714630127,0,0,25501,1593.812
1.0175840854644775,0,0,25501,1593.812
1.0212726593017578,1,1,24550,1534.375
1.0252506732940674,0,0,24167,1510.438
1.0292463302612305,0,0,27356,1709.750
1.0332505702972412,0,0,32513,2032.062
1.037254810333252,0,0,31334,1958.375
1.041261911392212,1,1,27572,1723.250
1.0452594757080078,0,0,24713,1544.562
1.049260139465332,0,0,26349,1646.812
1.0532629489898682,0,0,30927,1932.938
1.0572562217712402,0,0,30351,1896.938
1.0612611770629883,1,1,27319,1707.438
1.065258502960205,0,0,24823,1551.438
1.0692579746246338,0,0,32663,2041.438
1.0732605457305908,0,0,32767,2047.938
1.0772600173950195,0,0,32767,2047.938
1.081263780593872,1,1,32767,2047.938
1.0852575302124023,0,0,25386,1586.625
1.0892581939697266,0,0,25493,1593.312
1.09326171875,0,0,28220,1763.750
1.097257137298584,0,0,27391,1711.938
1.1012587547302246,1,1,25588,1599.250
1.1052577495574951,0,0,24195,1512.188
1.109257698059082,0,0,26662,1666.375
1.113257884979248,0,0,31401,1962.562
1.117258071899414,0,0,30194,1887.125
1.121342658996582,1,1,26834,1677.125
1.1252861022949219,0,0,24305,1519.062
1.1292834281921387,0,0,25237,1577.312
1.133298635482788,0,0,26806,1675.375
1.1372945308685303,0,0,25748,1609.250
1.1413006782531738,1,0,24702,1543.875
1.1452958583831787,0,0,24060,1503.750
1.1492938995361328,0,0,27218,1701.125
1.1532964706420898,0,0,31903,1993.938
1.1572959423065186,0,0,30124,1882.750
1.1612906455993652,1,1,26606,1662.875
1.165278434753418,0,0,24201,1512.562
1.1692805290222168,0,0,27976,1748.500
1.1732945442199707,0,0,32767,2047.938
1.1772973537445068,0,0,32767,2047.938
1.1812989711761475,1,1,28164,1760.250
1.1852943897247314,0,0,24219,1513.688
1.1892962455749512,0,0,32155,2009.688
1.1932957172393799,0,0,31382,1961.375
1.1972956657409668,0,0,27511,1719.438
1.2012882232666016,1,1,24435,1527.188
1.2052786350250244,0,0,25756,1609.750
1.2092795372009277,0,0,30448,1903.000
1.2132947444915771,0,0,29376,1836.000
1.217294692993164,0,0,26382,1648.875
1.2213342189788818,1,0,24189,1511.812
1.2252960205078125,0,0,26626,1664.125
1.2292940616607666,0,0,32767,2047.938
1.2332837581634521,0,0,32767,2047.938
1.2372815608978271,0,0,29618,1851.125
1.2412943840026855,1,1,24697,1543.562
1.2452940940856934,0,0,26299,1643.688
1.2492949962615967,0,0,32767,2047.938
1.2532978057861328,0,0,32767,2047.938
1.257293462753296,0,0,28406,1775.375
1.261293888092041,1,1,24238,1514.875
1.2652919292449951,0,0,26608,1663.000
1.269291639328003,0,0,32767,2047.938
1.2732954025268555,0,0,32767,2047.938
1.277294397354126,0,0,32767,2047.938
1.2812871932983398,1,1,25433,1589.562
1.2852787971496582,0,0,24225,1514.062
1.2892780303955078,0,0,27739,1733.688
1.2932982444763184,0,0,26625,1664.062
1.297292947769165,0,0,24707,1544.188
1.3012986183166504,1,1,23521,1470.062
1.3052945137023926,0,0,25298,1581.125
1.3092918395996094,0,0,32767,2047.938
1.31355619430542,0,0,32767,2047.938
1.3175008296966553,0,0,29205,1825.312
1.3215978145599365,1,1,24604,1537.750
1.3253180980682373,0,0,24082,1505.125
1.3292996883392334,0,0,32735,2045.938
1.3334379196166992,0,0,32767,2047.938
1.3373286724090576,0,0,30487,1905.438
1.3413398265838623,1,1,25277,1579.812
1.3452751636505127,0,0,24753,1547.062
1.3492567539215088,0,0,32767,2047.938
1.3532536029815674,0,0,32767,2047.938
1.357245922088623,0,0,32394,2024.625
1.3612620830535889,1,1,25422,1588.875
1.3652572631835938,0,0,24815,1550.938
1.369255781173706,0,0,32767,2047.938
1.3732490539550781,0,0,32767,2047.938
1.377251386642456,0,0,32767,2047.938
1.381265640258789,1,0,26861,1678.812
1.3852577209472656,0,0,23988,1499.250
1.3892548084259033,0,0,32767,2047.938
1.3932569026947021,0,0,32767,2047.938
1.3972549438476562,0,0,31499,1968.688
1.4012610912322998,1,0,24919,1557.438
1.4052550792694092,0,0,22636,1414.750
1.4092519283294678,0,0,29834,1864.625
1.4132561683654785,0,0,32368,2023.000
1.41725492477417,0,0,28676,1792.250
1.4212934970855713,1,1,24503,1531.438
1.4252562522888184,0,0,23117,1444.812
1.4292538166046143,0,0,29843,1865.188
1.4332587718963623,0,0,32643,2040.188
1.4372541904449463,0,0,29028,1814.250
1.4412517547607422,1,1,24700,1543.750
1.4452407360076904,0,0,23577,1473.562
1.4492433071136475,0,0,32767,2047.938
1.453256607055664,0,0,32767,2047.938
1.4572546482086182,0,0,30333,1895.812
1.4612622261047363,1,0,24617,1538.562
1.4652540683746338,0,0,22735,1420.938
1.4692561626434326,0,0,32216,2013.500
1.4732561111450195,0,0,32767,2047.938
1.4772546291351318,0,0,31193,1949.562
1.4812626838684082,1,1,25165,1572.812
1.4852535724639893,0,0,22368,1398.000
1.4892539978027344,0,0,30806,1925.375
1.4932565689086914,0,0,32767,2047.938
1.497253179550171,0,0,32767,2047.938
1.501255750656128,1,0,26461,1653.812
1.5052523612976074,0,0,22716,1419.750
1.5092511177062988,0,0,28470,1779.375
1.5132536888122559,0,0,30560,1910.000
1.5172531604766846,0,0,27377,1711.062
1.5212578773498535,1,1,23957,1497.312
1.5253543853759766,0,0,22412,1400.750
1.5292937755584717,0,0,24225,1514.062
1.5332858562469482,0,0,23978,1498.625
1.5372772216796875,0,0,23133,1445.812
1.5412917137145996,1,1,22766,1422.875
1.545287847518921,0,0,23460,1466.250
1.5492887496948242,0,0,32767,2047.938
1.5532925128936768,0,0,32767,2047.938
1.55729079246521,0,0,32767,2047.938
1.561295509338379,1,0,26414,1650.875
1.56528902053833,0,0,22059,1378.688
1.5692930221557617,0,0,29990,1874.375
1.5732946395874023,0,0,32767,2047.938
1.5772912502288818,0,0,32025,2001.562
1.5812914371490479,1,1,25854,1615.875
1.5852890014648438,0,0,22524,1407.750
1.5892891883850098,0,0,32767,2047.938
1.5932929515838623,0,0,32767,2047.938
1.5972909927368164,0,0,32767,2047.938
1.6012957096099854,1,0,28694,1793.375
1.6052885055541992,0,0,22602,1412.625
1.609290361404419,0,0,27797,1737.312
1.6132957935333252,0,0,32690,2043.125
1.617288589477539,0,0,29736,1858.500
1.6212902069091797,1,1,25013,1563.312
1.6253576278686523,0,0,22157,1384.812
1.6292574405670166,0,0,27837,1739.812
1.633256196975708,0,0,31670,1979.375
1.6372549533843994,0,0,28499,1781.188
1.6412577629089355,1,1,24342,1521.375
1.6452510356903076,0,0,21920,1370.000
1.6492516994476318,0,0,24804,1550.250
1.6532554626464844,0,0,27823,1738.938
1.6572511196136475,0,0,26452,1653.250
1.661243200302124,1,1,24031,1501.938
1.665238618850708,0,0,22426,1401.625
1.669238805770874,0,0,30748,1921.750
1.673245906829834,0,0,32767,2047.938
1.6772387027740479,0,0,32767,2047.938
1.6812543869018555,1,1,26019,1626.188
1.6852529048919678,0,0,21767,1360.438
1.68925142288208,0,0,22935,1433.438
1.6932549476623535,0,0,21775,1360.938
1.697251796722412,0,0,20729,1295.562
1.7012536525726318,1,1,21340,1333.750
1.7052536010742188,0,0,22064,1379.000
1.7092509269714355,0,0,29216,1826.000
1.7132530212402344,0,0,32767,2047.938
1.7172529697418213,0,0,30809,1925.562
1.7212557792663574,1,0,25247,1577.938
1.725304365158081,0,0,22021,1376.312
1.729294776916504,0,0,25979,1623.688
1.7332959175109863,0,0,30705,1919.062
1.7372896671295166,0,0,28614,1788.375
1.741290807723999,1,1,24902,1556.375
1.7452852725982666,0,0,22446,1402.875
1.749286413192749,0,0,29280,1830.000
1.753291368484497,0,0,32767,2047.938
1.757288932800293,0,0,32767,2047.938
1.7612886428833008,0,0,26569,1660.562
1.7652859687805176,0,0,22118,1382.375
1.769287347793579,0,0,27391,1711.938
1.7732913494110107,0,0,32767,2047.938
1.7772867679595947,0,0,32767,2047.938
1.78128981590271,1,1,28023,1751.438
1.7852869033813477,0,0,22573,1410.812
1.7892849445343018,0,0,25250,1578.125
1.7932872772216797,0,0,31701,1981.312
1.7972865104675293,0,0,25748,1609.250
1.8012917041778564,1,1,22486,1405.375
1.8052868843078613,0,0,26651,1665.688
1.8092854022979736,0,0,32767,2047.938
1.8132903575897217,0,0,32767,2047.938
1.8172855377197266,0,0,27965,1747.812
1.8212895393371582,1,1,22654,1415.875
1.8252849578857422,0,0,27626,1726.625
1.829301357269287,0,0,32767,2047.938
1.8332901000976562,0,0,32767,2047.938
1.8372883796691895,0,0,30796,1924.750
1.8412911891937256,1,1,23320,1457.500
1.8452856540679932,0,0,25808,1613.000
1.849283218383789,0,0,32767,2047.938
1.8532910346984863,0,0,32767,2047.938
1.857287883758545,0,0,28396,1774.750
1.86128568649292,1,0,22441,1402.562
1.865286111831665,0,0,22378,1398.625
1.8692851066589355,0,0,30865,1929.062
1.8732872009277344,0,0,32515,2032.188
1.8772857189178467,0,0,27925,1745.312
1.8812897205352783,1,0,23194,1449.625
1.8852839469909668,0,0,21252,1328.250
1.8892865180969238,0,0,21615,1350.938
1.8932907581329346,0,0,22185,1386.562
1.8972842693328857,0,0,22441,1402.562
1.9012887477874756,1,0,22261,1391.312
1.905285358428955,0,0,23642,1477.625
1.9092864990234375,0,0,28042,1752.625
1.9132771492004395,0,0,27562,1722.625
1.9172732830047607,0,0,24766,1547.875
1.921285629272461,1,0,22490,1405.625
1.9252841472625732,0,0,23316,1457.250
1.9293174743652344,0,0,27589,1724.312
1.9332902431488037,0,0,26934,1683.375
1.9372851848602295,0,0,24384,1524.000
1.9412868022918701,1,0,22457,1403.562
1.9452834129333496,0,0,22279,1392.438
1.9492838382720947,0,0,23056,1441.000
1.9532864093780518,0,0,22368,1398.000
1.9572863578796387,0,0,22169,1385.562
1.9612915515899658,1,1,22205,1387.812
1.965287685394287,0,0,22815,1425.938
1.9692833423614502,0,0,26231,1639.438
1.9732885360717773,0,0,26957,1684.812
1.9772851467132568,0,0,25148,1571.750
1.9812877178192139,1,1,23206,1450.375
1.9852843284606934,0,0,22936,1433.500
1.989283800125122,0,0,25161,1572.562
1.9932851791381836,0,0,24884,1555.250
1.9972858428955078,0,0,23704,1481.500
2.0012919902801514,1,1,22786,1424.125
2.0052831172943115,0,0,24481,1530.062
2.009286880493164,0,0,32767,2047.938
2.019988536834717,1,1,24692,1543.250
2.0212767124176025,1,0,24692,1543.250
2.0252952575683594,0,0,22408,1400.500
2.0292954444885254,0,0,26027,1626.688
2.0332517623901367,0,0,25100,1568.750
2.0372471809387207,0,0,23351,1459.438
2.041248321533203,1,0,22369,1398.062
2.0452330112457275,0,0,22906,1431.625
2.0492334365844727,0,0,27789,1736.812
2.053250789642334,0,0,29000,1812.500
2.057244062423706,0,0,26372,1648.250
2.0612525939941406,1,0,23582,1473.875
2.065246105194092,0,0,23141,1446.312
2.0692453384399414,0,0,31218,1951.125
2.073246717453003,0,0,32767,2047.938
2.0772459506988525,0,0,28980,1811.250
2.081249237060547,1,1,24170,1510.625
2.085247039794922,0,0,23731,1483.188
2.0892446041107178,0,0,32767,2047.938
2.0932509899139404,0,0,32767,2047.938
2.0972445011138916,0,0,32564,2035.250
2.1012449264526367,1,1,24767,1547.938
2.105245351791382,0,0,21718,1357.375
2.109243869781494,0,0,26329,1645.562
2.1132454872131348,0,0,27670,1729.375
2.117244243621826,0,0,25526,1595.375
2.1212453842163086,1,0,23225,1451.562
2.125244140625,0,0,23676,1479.750
2.129258871078491,0,0,32767,2047.938
2.1332859992980957,0,0,32767,2047.938
2.137282609939575,0,0,31834,1989.625
2.1412878036499023,1,0,24383,1523.938
2.1452817916870117,0,0,21991,1374.438
2.149280309677124,0,0,32767,2047.938
2.153282642364502,0,0,32767,2047.938
2.1572813987731934,0,0,32767,2047.938
2.1612789630889893,1,0,25390,1586.875
2.165266275405884,0,0,21161,1322.562
2.169266700744629,0,0,21593,1349.562
2.17328143119812,0,0,21487,1342.938
2.1772823333740234,0,0,21673,1354.562
2.181285858154297,0,0,22016,1376.000
2.1852805614471436,0,0,22364,1397.750
2.189279317855835,0,0,24744,1546.500
2.1932828426361084,0,0,23801,1487.562
2.197281837463379,0,0,22476,1404.750
2.2012860774993896,0,0,22015,1375.938
2.2052810192108154,0,0,21579,1348.688
2.2092812061309814,0,0,16246,1015.375
2.213284969329834,0,0,12776,798.500
2.217280626296997,0,0,16046,1002.875
2.221273183822632,1,0,20619,1288.688
2.225267171859741,0,0,23601,1475.062
2.229266881942749,0,0,32767,2047.938
2.233285427093506,0,0,32767,2047.938
2.2372803688049316,0,0,32767,2047.938
2.2412772178649902,0,0,25559,1597.438
2.2452657222747803,0,0,21433,1339.562
2.249265432357788,0,0,20045,1252.812
2.253281593322754,0,0,18689,1168.062
2.2572824954986572,0,0,19890,1243.125
2.2612853050231934,0,0,21788,1361.750
2.2652790546417236,0,0,22975,1435.938
2.269280433654785,0,0,27876,1742.250
2.2732815742492676,0,0,28774,1798.375
2.277280569076538,0,0,25936,1621.000
2.281285524368286,0,0,23466,1466.625
2.285278558731079,0,0,22457,1403.562
2.28928279876709,0,0,27868,1741.750
2.293283224105835,0,0,30144,1884.000
2.2972779273986816,0,0,27175,1698.438
2.3012802600860596,0,0,24002,1500.125
2.3052780628204346,0,0,22387,1399.188
2.309279203414917,0,0,26849,1678.062
2.3135569095611572,0,0,27800,1737.500
2.317484140396118,0,0,25168,1573.000
2.3213531970977783,0,0,23133,1445.812
2.325277805328369,0,0,22418,1401.125
2.3293251991271973,0,0,32767,2047.938
2.3332769870758057,0,0,32767,2047.938
2.3372364044189453,0,0,32767,2047.938
2.341233015060425,1,0,27183,1698.938
2.3452322483062744,0,0,21941,1371.312
2.349229097366333,0,0,23110,1444.375
2.355164051055908,0,0,24786,1549.125
2.3572824001312256,0,0,24786,1549.125
2.3612382411956787,0,0,23641,1477.562
2.365351676940918,0,0,22732,1420.750
2.369284152984619,0,0,29273,1829.562
2.373248338699341,0,0,32767,2047.938
2.3772597312927246,0,0,31447,1965.438
2.381242275238037,0,0,25716,1607.250
2.3852310180664062,0,0,22191,1386.938
2.389230966567993,0,0,23805,1487.812
2.3932487964630127,0,0,25152,1572.000
2.397244453430176,0,0,24222,1513.875
2.4012367725372314,0,0,23174,1448.375
2.405229330062866,0,0,27390,1711.875
2.4092297554016113,0,0,32767,2047.938
2.413238525390625,0,0,31415,1963.438
2.417229413986206,0,0,26180,1636.250
2.4212427139282227,0,0,22541,1408.812
2.425243616104126,0,0,27328,1708.000
2.4292423725128174,0,0,32767,2047.938
2.4332802295684814,0,0,31830,1989.375
2.437242031097412,0,0,26237,1639.812
2.4412484169006348,0,1,22362,1397.625
2.445239782333374,0,0,23274,1454.625
2.4492392539978027,0,0,27927,1745.438
2.4532454013824463,0,0,27869,1741.812
2.457239866256714,0,0,25241,1577.562
2.461242198944092,0,0,22888,1430.500
2.465240001678467,0,0,25479,1592.438
2.469238758087158,0,0,30578,1911.125
2.4732422828674316,0,0,29153,1822.062
2.477241277694702,0,0,25369,1585.562
2.481248378753662,0,0,22540,1408.750
2.485239028930664,0,0,25148,1571.750
2.489238739013672,0,0,31179,1948.688
2.4932429790496826,0,0,30023,1876.438
2.497238874435425,0,0,25870,1616.875
2.5012412071228027,0,0,22669,1416.812
2.5052385330200195,0,0,28037,1752.312
2.5092384815216064,0,0,32767,2047.938
2.5132391452789307,0,0,32767,2047.938
2.517239809036255,0,0,27457,1716.062
2.5212459564208984,0,1,22168,1385.500
2.525238275527954,0,0,22067,1379.188
2.529238700866699,0,0,23344,1459.000
2.5333526134490967,0,0,22493,1405.812
2.537280797958374,0,0,22152,1384.500
2.541280508041382,1,1,22078,1379.875
2.545276403427124,0,0,23552,1472.000
2.5492756366729736,0,0,27307,1706.688
2.553267002105713,0,0,27024,1689.000
2.5572621822357178,0,0,24732,1545.750
2.561279296875,1,1,22779,1423.688
2.5652763843536377,0,0,21614,1350.875
2.569274425506592,0,0,18612,1163.250
2.5732805728912354,0,0,18414,1150.875
2.5772757530212402,0,0,20555,1284.688
2.581277370452881,1,0,22258,1391.125
2.5852746963500977,0,0,24448,1528.000
2.589275360107422,0,0,27124,1695.250
2.593277931213379,0,0,26197,1637.312
2.5972752571105957,0,0,24227,1514.188
2.6012799739837646,1,1,22820,1426.250
2.605274200439453,0,0,26668,1666.750
2.609273672103882,0,0,32767,2047.938
2.613281726837158,0,0,32767,2047.938
2.617276906967163,0,0,30694,1918.375
2.6212751865386963,1,1,23629,1476.812
2.625272512435913,0,0,21993,1374.562
2.6292731761932373,0,0,26690,1668.125
2.633270502090454,0,0,28010,1750.625
2.6372406482696533,0,0,25876,1617.250
2.641244888305664,0,1,23435,1464.688
2.645238161087036,0,0,25447,1590.438
2.649235963821411,0,0,32767,2047.938
2.65324068069458,0,0,32767,2047.938
2.6572375297546387,0,0,31674,1979.625
2.6612308025360107,1,0,24122,1507.625
2.665222406387329,0,0,23676,1479.750
2.6692235469818115,0,0,32767,2047.938
2.673240900039673,0,0,32767,2047.938
2.6772372722625732,0,0,28255,1765.938
2.6812403202056885,1,1,23204,1450.250
2.685236930847168,0,0,22702,1418.875
2.689237356185913,0,0,29762,1860.125
2.6932437419891357,0,0,30567,1910.438
2.697223424911499,0,0,26691,1668.188
2.7012343406677246,1,1,23091,1443.188
2.705235719680786,0,0,24019,1501.188
2.709235429763794,0,0,32767,2047.938
2.71323561668396,0,0,32767,2047.938
2.7172346115112305,0,0,31200,1950.000
2.721240520477295,1,1,23807,1487.938
2.7252349853515625,0,0,22085,1380.312
2.7292349338531494,0,0,29706,1856.625
2.7332499027252197,0,0,30844,1927.750
2.737278699874878,0,0,26827,1676.688
2.7412784099578857,1,1,22998,1437.375
2.7452735900878906,0,0,21854,1365.875
2.749271869659424,0,0,26288,1643.000
2.7532742023468018,0,0,28133,1758.312
2.7572734355926514,0,0,25932,1620.750
2.7612788677215576,1,1,23223,1451.438
2.765272617340088,0,0,22729,1420.562
2.7692716121673584,0,0,30274,1892.125
2.7732748985290527,0,0,31744,1984.000
2.7772722244262695,0,0,27469,1716.812
2.7812745571136475,1,1,23266,1454.125
2.7852702140808105,0,0,22719,1419.938
2.7892720699310303,0,0,32767,2047.938
2.7932755947113037,0,0,32767,2047.938
2.7972729206085205,0,0,31319,1957.438
2.8012752532958984,1,1,24137,1508.562
2.805269241333008,0,0,21788,1361.750
2.809272289276123,0,0,32210,2013.125
2.8132755756378174,0,0,32767,2047.938
2.817270517349243,0,0,30266,1891.625
2.821272850036621,1,1,24013,1500.812
2.825272798538208,0,0,21308,1331.750
2.829270601272583,0,0,30039,1877.438
2.8332715034484863,0,0,32767,2047.938
2.8372881412506104,0,0,30806,1925.375
2.8412797451019287,1,1,24613,1538.312
2.8452723026275635,0,0,21496,1343.500
2.849269390106201,0,0,27509,1719.312
2.8532750606536865,0,0,30592,1912.000
2.857271909713745,0,0,27422,1713.875
2.861273765563965,1,1,23475,1467.188
2.8652725219726562,0,0,21772,1360.750
2.8692712783813477,0,0,27726,1732.875
2.873267889022827,0,0,30056,1878.500
2.877269983291626,0,0,26809,1675.562
2.8812766075134277,1,1,23180,1448.750
2.885270357131958,0,0,21539,1346.188
2.8892698287963867,0,0,24503,1531.438
2.893275499343872,0,0,25855,1615.938
2.8972716331481934,0,0,24420,1526.250
2.9012722969055176,1,1,22691,1418.188
2.9052677154541016,0,0,21787,1361.688
2.9092698097229004,0,0,23324,1457.750
2.9132637977600098,0,0,22730,1420.625
2.9172561168670654,0,0,21914,1369.625
2.921271800994873,1,1,21751,1359.438
2.9252681732177734,0,0,21979,1373.688
2.929270029067993,0,0,25295,1580.938
2.933274984359741,0,0,24945,1559.062
2.937305450439453,0,0,23084,1442.750
2.9412736892700195,1,1,22054,1378.375
2.9452710151672363,0,0,21921,1370.062
2.9492697715759277,0,0,26790,1674.375
2.9532699584960938,0,0,28534,1783.375
2.9572694301605225,0,0,25964,1622.750
2.9612674713134766,1,1,23256,1453.500
2.965256929397583,0,0,21988,1374.250
2.969251871109009,0,0,29011,1813.188
2.9732766151428223,0,0,32767,2047.938
2.9772722721099854,0,0,29502,1843.875
2.981278896331787,1,1,24518,1532.375
2.9852702617645264,0,0,21759,1359.938
2.989272117614746,0,0,28848,1803.000
2.9932758808135986,0,0,32767,2047.938
2.9972708225250244,0,0,30996,1937.250
3.001272439956665,1,1,25210,1575.625
3.0052683353424072,0,0,21671,1354.438
3.009272336959839,0,0,22937,1433.562
3.013275623321533,0,0,22502,1406.375
3.0239412784576416,0,0,22060,1378.750
3.0252459049224854,0,0,28158,1759.875
3.0292816162109375,0,0,31597,1974.812
3.0332753658294678,0,0,27987,1749.188
3.037356376647949,0,0,23851,1490.688
3.041240692138672,1,1,21580,1348.750
3.0452215671539307,0,0,23860,1491.250
3.0492193698883057,0,0,26801,1675.062
3.0532329082489014,0,0,25825,1614.062
3.0572333335876465,0,0,23762,1485.125
3.061232089996338,1,1,22262,1391.375
3.065220594406128,0,0,28327,1770.438
3.069220542907715,0,0,30402,1900.125
3.073237180709839,0,0,26040,1627.500
3.0772323608398438,0,0,22611,1413.188
3.0812368392944336,1,1,21241,1327.562
3.0852324962615967,0,0,19785,1236.562
3.0892322063446045,0,0,15527,970.438
3.093235969543457,0,0,16082,1005.125
3.0972328186035156,0,0,19593,1224.562
3.10123348236084,1,1,22105,1381.562
3.1052329540252686,0,0,24274,1517.125
3.1092331409454346,0,0,23188,1449.250
3.1132330894470215,0,0,21795,1362.188
3.117232322692871,0,0,21853,1365.812
3.121236562728882,1,1,22218,1388.625
3.125230073928833,0,0,23448,1465.500
3.129230499267578,0,0,20276,1267.250
3.1332340240478516,0,0,18686,1167.875
3.137230396270752,0,0,20290,1268.125
3.1412742137908936,1,1,22044,1377.750
3.1452693939208984,0,0,23321,1457.562
3.1492698192596436,0,0,22205,1387.812
3.1532697677612305,0,0,21583,1348.938
3.1572704315185547,0,0,22208,1388.000
3.161264419555664,1,1,22762,1422.625
3.165252685546875,0,0,21398,1337.375
3.1692543029785156,0,0,15552,972.000
3.173269510269165,0,0,15795,987.188
3.177269458770752,0,0,19773,1235.812
3.1812744140625,1,1,22762,1422.625
3.185264825820923,0,0,23931,1495.688
3.189267158508301,0,0,20291,1268.188
3.193269968032837,0,0,18659,1166.188
3.1972692012786865,0,0,20549,1284.312
3.2012743949890137,1,1,22586,1411.625
3.205268621444702,0,0,23533,1470.812
3.2092676162719727,0,0,21683,1355.188
3.213271379470825,0,0,20958,1309.875
3.217270851135254,0,0,22098,1381.125
3.2212584018707275,1,1,23168,1448.000
3.225254774093628,0,0,25926,1620.375
3.2292520999908447,0,0,28501,1781.312
3.233274221420288,0,0,26554,1659.625
3.2372658252716064,0,0,24412,1525.750
3.2412729263305664,1,1,23269,1454.312
3.2452661991119385,0,0,25392,1587.000
3.2492668628692627,0,0,26821,1676.312
3.2532713413238525,0,0,24183,1511.438
3.2572662830352783,0,0,22905,1431.562
3.2612698078155518,1,0,22804,1425.250
3.2652673721313477,0,0,26969,1685.562
3.2692673206329346,0,0,32767,2047.938
3.2732694149017334,0,0,32767,2047.938
3.2772679328918457,0,0,27503,1718.938
3.281266689300537,1,0,23528,1470.500
3.2852530479431152,0,0,23655,1478.438
3.2892515659332275,0,0,26146,1634.125
3.293264865875244,0,0,25549,1596.812
3.2972681522369385,0,0,24322,1520.125
3.3012704849243164,1,1,23432,1464.500
3.305265426635742,0,0,23697,1481.062
3.309265375137329,0,0,20757,1297.312
3.3135650157928467,0,0,18018,1126.125
3.317497491836548,0,0,19715,1232.188
3.321335792541504,1,1,22233,1389.562
3.325314998626709,0,0,24875,1554.688
3.3294618129730225,0,0,25978,1623.625
3.333343505859375,0,0,23487,1467.938
3.3373048305511475,0,0,22595,1412.188
3.341254949569702,1,1,22844,1427.750
3.3452329635620117,0,0,25548,1596.750
3.349216938018799,0,0,31405,1962.812
3.3532185554504395,0,0,29430,1839.375
3.357215642929077,0,0,25687,1605.438
3.3612232208251953,1,1,23389,1461.812
3.365217447280884,0,0,23728,1483.000
3.3692142963409424,0,0,26940,1683.750
3.3732364177703857,0,0,26017,1626.062
3.377228260040283,0,0,24398,1524.875
3.3812310695648193,1,1,23460,1466.250
3.3852293491363525,0,0,24087,1505.438
3.3892266750335693,0,0,25199,1574.938
3.3932337760925293,0,0,23181,1448.812
3.397228479385376,0,0,22533,1408.312
3.4012367725372314,1,1,22912,1432.000
3.4052271842956543,0,0,25599,1599.938
3.409228563308716,0,0,32767,2047.938
3.413224935531616,0,0,32767,2047.938
3.4172182083129883,0,0,30236,1889.750
3.421229600906372,1,0,24551,1534.438
3.42522931098938,0,0,23699,1481.188
3.4292285442352295,0,0,31398,1962.375
3.433229684829712,0,0,31866,1991.625
3.437227964401245,0,0,27681,1730.062
3.4413352012634277,0,0,24061,1503.812
3.445270299911499,0,0,23819,1488.688
3.449268341064453,0,0,32767,2047.938
3.4532721042633057,0,0,32767,2047.938
3.457265615463257,0,0,29741,1858.812
3.461271286010742,1,0,24550,1534.375
3.465271472930908,0,0,21908,1369.250
3.469266653060913,0,0,17602,1100.125
3.473268985748291,0,0,16089,1005.562
3.4772677421569824,0,0,19045,1190.312
3.4812769889831543,0,1,22271,1391.938
3.4852662086486816,0,0,24233,1514.562
3.4892656803131104,0,0,26515,1657.188
3.493269681930542,0,0,24446,1527.875
3.4972665309906006,0,0,22915,1432.188
3.501267910003662,1,1,22734,1420.875
3.505265712738037,0,0,23823,1488.938
3.5092647075653076,0,0,31570,1973.125
3.513270616531372,0,0,31899,1993.688
3.517265558242798,0,0,27479,1717.438
3.521270275115967,1,0,23953,1497.062
3.5252654552459717,0,0,22662,1416.375
3.5292649269104004,0,0,25452,1590.750
3.533268690109253,0,0,27001,1687.562
3.537263870239258,0,0,25855,1615.938
3.5413434505462646,0,0,24259,1516.188
3.5452306270599365,0,0,23829,1489.312
3.549227714538574,0,0,30218,1888.625
3.5532314777374268,0,0,30110,1881.875
3.5572280883789062,0,0,26312,1644.500
3.561232805252075,1,0,23563,1472.688
3.5652265548706055,0,0,22796,1424.750
3.5692269802093506,0,0,23446,1465.375
3.57322359085083,0,0,20252,1265.750
3.577214479446411,0,0,20023,1251.438
3.581228017807007,0,0,21744,1359.000
3.5852270126342773,0,0,23249,1453.062
3.589226484298706,0,0,22231,1389.438
3.5932276248931885,0,0,16389,1024.312
3.597226619720459,0,0,16834,1052.125
3.6012308597564697,0,0,20551,1284.438
3.605226516723633,0,0,23470,1466.875
3.6092264652252197,0,0,28640,1790.000
3.613229274749756,0,0,28156,1759.750
3.6172263622283936,0,0,23610,1475.625
3.621227979660034,1,0,23103,1443.938
3.625225782394409,0,0,21850,1365.625
3.629225254058838,0,0,18557,1159.812
3.633227825164795,0,0,19404,1212.750
3.63722562789917,0,0,22034,1377.125
3.6412439346313477,0,0,23650,1478.125
3.6452674865722656,0,0,23911,1494.438
3.6492667198181152,0,0,20260,1266.250
3.6532678604125977,0,0,19876,1242.250
3.6572635173797607,0,0,21913,1369.562
3.6612558364868164,0,0,23501,1468.812
3.665247678756714,0,0,24729,1545.562
3.6692469120025635,0,0,23332,1458.250
3.673267126083374,0,0,22718,1419.875
3.677263021469116,0,0,23289,1455.562
3.681270122528076,1,0,23746,1484.125
3.6852612495422363,0,0,22411,1400.688
3.689262628555298,0,0,18694,1168.375
3.693265676498413,0,0,19346,1209.125
3.6972618103027344,0,0,22148,1384.250
3.701263189315796,1,0,24060,1503.750
3.7052624225616455,0,0,30014,1875.875
3.7092604637145996,0,0,32421,2026.312
3.713257312774658,0,0,28916,1807.250
3.7172493934631348,0,0,25358,1584.875
3.7212612628936768,0,0,23495,1468.438
3.7252626419067383,0,0,25057,1566.062
3.729264974594116,0,0,24975,1560.938
3.733267307281494,0,0,23893,1493.312
3.7372608184814453,0,0,23709,1481.812
3.741262674331665,0,0,23748,1484.250
3.745277166366577,0,0,22320,1395.000
3.7492611408233643,0,0,21959,1372.438
3.753264904022217,0,0,23316,1457.250
3.75726318359375,0,0,24368,1523.000
3.761265993118286,1,0,24485,1530.312
3.7652623653411865,0,0,24542,1533.875
3.769260883331299,0,0,24058,1503.625
3.7732670307159424,0,0,23944,1496.500
3.7772624492645264,0,0,24179,1511.188
3.7812623977661133,0,0,24186,1511.625
3.785259485244751,0,0,30280,1892.500
3.7892606258392334,0,0,32767,2047.938
3.793262481689453,0,0,32767,2047.938
3.797262668609619,0,0,27402,1712.625
3.8012654781341553,1,0,23723,1482.688
3.8052608966827393,0,0,25272,1579.500
3.809260129928589,0,0,25607,1600.438
3.813267707824707,0,0,24217,1513.562
3.8172621726989746,0,0,23710,1481.875
3.8212616443634033,0,0,23624,1476.500
3.825260877609253,0,0,23101,1443.812
3.8292627334594727,0,0,21345,1334.062
3.8332629203796387,0,0,21730,1358.125
3.837259531021118,0,0,23198,1449.875
3.8412656784057617,0,0,24047,1502.938
3.845294237136841,0,0,26812,1675.750
3.84926176071167,0,0,27146,1696.625
3.853264570236206,0,0,24530,1533.125
3.8572585582733154,0,0,23451,1465.688
3.8612611293792725,0,0,23388,1461.750
3.8652594089508057,0,0,28046,1752.875
3.8692586421966553,0,0,32767,2047.938
3.8732619285583496,0,0,32060,2003.750
3.877260446548462,0,0,27183,1698.938
3.8812649250030518,0,0,23908,1494.250
3.8852598667144775,0,0,26649,1665.562
3.8892593383789062,0,0,29485,1842.812
3.893263578414917,0,0,26436,1652.250
3.897256374359131,0,0,24072,1504.500
3.9012598991394043,0,1,23197,1449.812
3.9052586555480957,0,0,24143,1508.938
3.909257650375366,0,0,23180,1448.750
3.913254737854004,0,0,21856,1366.000
3.9172468185424805,0,0,22507,1406.688
3.921259880065918,0,1,23429,1464.312
3.925257921218872,0,0,24716,1544.750
3.929262638092041,0,0,25600,1600.000
3.9332644939422607,0,0,24747,1546.688
3.937257766723633,0,0,24185,1511.562
3.9412598609924316,0,0,23902,1493.875
3.9452908039093018,0,0,26245,1640.312
3.94925856590271,0,0,30700,1918.750
3.9532582759857178,0,0,28780,1798.750
3.9572575092315674,0,0,25693,1605.812
3.9612629413604736,0,0,23809,1488.062
3.965261220932007,0,0,24791,1549.438
3.969259023666382,0,0,24842,1552.625
3.973262310028076,0,0,22838,1427.375
3.977257490158081,0,0,22702,1418.875
3.981262683868408,0,1,23336,1458.500
3.9852609634399414,0,0,23722,1482.625
3.989257335662842,0,0,18973,1185.812
3.9932610988616943,0,0,16420,1026.250
3.997258186340332,0,0,19330,1208.125
4.001262426376343,1,0,22805,1425.312
4.005256414413452,0,0,25668,1604.250
4.009258508682251,0,0,27260,1703.750
4.013259172439575,0,0,25091,1568.188
4.017259120941162,0,0,23856,1491.000
4.027918815612793,0,0,26257,1641.062
4.029236078262329,0,0,26257,1641.062
4.033278703689575,0,0,24552,1534.500
4.037264108657837,0,0,23780,1486.250
4.041264533996582,1,0,23826,1489.125
4.045258522033691,0,0,25250,1578.125
4.049266576766968,0,0,29693,1855.812
4.053231954574585,0,0,29610,1850.625
4.05722188949585,0,0,26976,1686.000
4.061223030090332,0,0,24750,1546.875
4.065220355987549,0,0,24514,1532.125
4.069218873977661,0,0,27611,1725.688
4.073223352432251,0,0,28122,1757.625
4.077223062515259,0,0,26462,1653.875
4.081217050552368,0,1,24794,1549.625
4.085205554962158,0,0,24510,1531.875
4.089208364486694,0,0,26034,1627.125
4.0932230949401855,0,0,25388,1586.750
4.097219944000244,0,0,24573,1535.812
4.101223945617676,0,0,24143,1508.938
4.105219602584839,0,0,25095,1568.438
4.109219312667847,0,0,31664,1979.000
4.113219738006592,0,0,32548,2034.250
4.117218971252441,0,0,28713,1794.562
4.121223211288452,0,0,25117,1569.812
4.125218629837036,0,0,24905,1556.562
4.12921929359436,0,0,32767,2047.938
4.1332221031188965,0,0,32767,2047.938
4.1372199058532715,0,0,32029,2001.812
4.141222715377808,0,0,25772,1610.750
4.145218849182129,0,0,23845,1490.312
4.149233818054199,0,0,32132,2008.250
4.153263092041016,0,0,32767,2047.938
4.157257318496704,0,0,30202,1887.625
4.1612548828125,0,0,25391,1586.938
4.165253639221191,0,0,24141,1508.812
4.169251918792725,0,0,32767,2047.938
4.173256158828735,0,0,32767,2047.938
4.177255630493164,0,0,31089,1943.062
4.181261301040649,0,0,25309,1581.812
4.185254335403442,0,0,22687,1417.938
4.18925666809082,0,0,24037,1502.312
4.193258047103882,0,0,24939,1558.688
4.197255611419678,0,0,24637,1539.812
4.201260805130005,0,0,24023,1501.438
4.205255031585693,0,0,23936,1496.000
4.209253787994385,0,0,28147,1759.188
4.213260173797607,0,0,28115,1757.188
4.217256784439087,0,0,25678,1604.875
4.221246004104614,0,0,23262,1453.875
4.225239992141724,0,0,23512,1469.500
4.22924017906189,0,0,21910,1369.375
4.2332603931427,0,0,21945,1371.562
4.237255334854126,0,0,22891,1430.688
4.24126124382019,0,0,23735,1483.438
4.245256662368774,0,0,29391,1836.938
4.249269008636475,0,0,32767,2047.938
4.253222465515137,0,0,29826,1864.125
4.257218837738037,0,0,25723,1607.688
4.26122260093689,0,0,23444,1465.250
4.265217065811157,0,0,27688,1730.500
4.269216537475586,0,0,29018,1813.625
4.273219585418701,0,0,26661,1666.312
4.2772181034088135,0,0,24372,1523.250
4.281221389770508,0,0,23215,1450.938
4.285216808319092,0,0,23619,1476.188
4.289217710494995,0,0,23044,1440.250
4.29322075843811,0,0,22988,1436.750
4.297215461730957,0,0,23399,1462.438
4.3012189865112305,0,0,23784,1486.500
4.305215120315552,0,0,27868,1741.750
4.309215307235718,0,0,30671,1916.938
4.313511610031128,0,0,28586,1786.625
4.317417144775391,0,0,25477,1592.312
4.321256875991821,1,0,23619,1476.188
4.3252222537994385,0,0,25775,1610.938
4.329208612442017,0,0,24157,1509.812
4.333286762237549,0,0,22675,1417.188
4.337372303009033,0,0,22780,1423.750
4.341329336166382,0,0,23282,1455.125
4.345221996307373,0,0,26222,1638.875
4.3492043018341064,0,0,27017,1688.562
4.353272914886475,0,0,25569,1598.062
4.357226848602295,0,0,24276,1517.250
4.361231803894043,0,0,23591,1474.438
4.365215301513672,0,0,28782,1798.875
4.369213819503784,0,0,32767,2047.938
4.373571395874023,0,0,32023,2001.438
4.3779895305633545,0,0,26989,1686.812
4.381383180618286,0,0,23639,1477.438
4.385235786437988,0,0,27070,1691.875
4.389213562011719,0,0,31273,1954.562
4.393218517303467,0,0,29467,1841.688
4.397212982177734,0,0,25961,1622.562
4.401209354400635,0,0,23560,1472.500
4.4052040576934814,0,0,27457,1716.062
4.409204483032227,0,0,31252,1953.250
4.413221597671509,0,0,29051,1815.688
4.417210578918457,0,0,25573,1598.312
4.421213865280151,0,0,23309,1456.812
4.425212144851685,0,0,22973,1435.812
4.429211616516113,0,0,21932,1370.750
4.433213949203491,0,0,21944,1371.500
4.437208652496338,0,0,22877,1429.812
4.441213369369507,0,0,23450,1465.625
4.445212125778198,0,0,26403,1650.188
4.449212074279785,0,0,28319,1769.938
4.453250885009766,0,0,26676,1667.250
4.45721173286438,0,0,24676,1542.250
4.461211919784546,0,0,23429,1464.312
4.46521258354187,0,0,21829,1364.312
4.469212055206299,0,0,16228,1014.250
4.4732139110565186,0,0,16342,1021.375
4.477209806442261,0,0,20274,1267.125
4.481218099594116,0,0,23278,1454.875
4.48521089553833,0,0,30018,1876.125
4.489212512969971,0,0,32767,2047.938
4.493212699890137,0,0,32767,2047.938
4.497208595275879,0,0,29700,1856.250
4.5012102127075195,0,0,23888,1493.000
4.505212306976318,0,0,25707,1606.688
4.5092127323150635,0,0,27892,1743.250
4.513211488723755,0,0,25679,1604.938
4.517208576202393,0,0,23897,1493.562
4.521215915679932,0,0,23133,1445.812
4.525211811065674,0,0,24467,1529.188
4.529210329055786,0,0,25308,1581.750
4.5332114696502686,0,0,24363,1522.688
4.537208795547485,0,0,23800,1487.500
4.541210889816284,0,0,23532,1470.750
4.545210123062134,0,0,26182,1636.375
4.549209833145142,0,0,28957,1809.812
4.553245544433594,0,0,26870,1679.375
4.557249307632446,0,0,24585,1536.562
4.561259031295776,0,0,23333,1458.312
4.565249681472778,0,0,25386,1586.625
4.56924843788147,0,0,25995,1624.688
4.5732505321502686,0,0,23735,1483.438
4.577246904373169,0,0,22962,1435.125
4.5813000202178955,0,0,23084,1442.750
4.585247993469238,0,0,28123,1757.688
4.58924674987793,0,0,32767,2047.938
4.5932440757751465,0,0,32767,2047.938
4.5972371101379395,0,0,29091,1818.188
4.601250410079956,0,0,23898,1493.625
4.60524845123291,0,0,23263,1453.938
4.609249591827393,0,0,23760,1485.000
4.613250732421875,0,0,22955,1434.688
4.617242336273193,0,0,23034,1439.625
4.621248006820679,0,0,23334,1458.375
4.625249147415161,0,0,23359,1459.938
4.629247665405273,0,0,20937,1308.562
4.633245944976807,0,0,20240,1265.000
4.637246131896973,0,0,21837,1364.812
4.6412739753723145,0,0,23321,1457.562
4.645248174667358,0,0,24171,1510.688
4.649246454238892,0,0,20525,1282.812
4.653317451477051,0,0,18368,1148.000
4.6572136878967285,0,0,20388,1274.250
4.661207437515259,0,0,22885,1430.312
4.66519832611084,0,0,27791,1736.938
4.669198751449585,0,0,32767,2047.938
4.6732118129730225,0,0,32767,2047.938
4.677206993103027,0,0,29763,1860.188
4.681210994720459,0,0,24335,1520.938
4.685208320617676,0,0,24488,1530.500
4.6892101764678955,0,0,31297,1956.062
4.693211317062378,0,0,31346,1959.125
4.697203636169434,0,0,27544,1721.500
4.701207160949707,0,0,24342,1521.375
4.705209970474243,0,0,24733,1545.812
4.709208250045776,0,0,29218,1826.125
4.713207006454468,0,0,28126,1757.875
4.717207670211792,0,0,25468,1591.750
4.721214532852173,0,0,23700,1481.250
4.725207805633545,0,0,25863,1616.438
4.72920823097229,0,0,32767,2047.938
4.733209609985352,0,0,32767,2047.938
4.737200021743774,0,0,30196,1887.250
4.741209268569946,0,0,24506,1531.625
4.745208263397217,0,0,24781,1548.812
4.749210596084595,0,0,32767,2047.938
4.753208637237549,0,0,32767,2047.938
4.757310152053833,0,0,29965,1872.812
4.761258840560913,0,0,24380,1523.750
4.765247583389282,0,0,23224,1451.500
4.769244432449341,0,0,29877,1867.312
4.773247003555298,0,0,31194,1949.625
4.777244329452515,0,0,27750,1734.375
4.781248569488525,0,0,24309,1519.312
4.785245180130005,0,0,23249,1453.062
4.789244174957275,0,0,25616,1601.000
4.79324197769165,0,0,25015,1563.438
4.797242164611816,0,0,23856,1491.000
4.801250219345093,0,0,23228,1451.750
4.8052449226379395,0,0,23598,1474.875
4.809246301651001,0,0,27979,1748.688
4.813247442245483,0,0,29329,1833.062
4.817240953445435,0,0,26991,1686.938
4.821246862411499,0,0,24374,1523.375
4.825241804122925,0,0,28343,1771.438
4.829243421554565,0,0,27335,1708.438
4.833240747451782,0,0,24775,1548.438
4.837240695953369,0,0,23227,1451.688
4.84125280380249,0,0,23347,1459.188
4.845244884490967,0,0,25749,1609.312
4.849243640899658,0,0,24180,1511.250
4.853243589401245,0,0,22977,1436.062
4.857261657714844,0,0,22857,1428.562
4.8612141609191895,0,0,22936,1433.500
4.865209341049194,0,0,20716,1294.750
4.86920690536499,0,0,17940,1121.250
4.873203992843628,0,0,19432,1214.500
4.877203702926636,0,0,22139,1383.688
4.881210088729858,0,0,24273,1517.062
4.885206460952759,0,0,32616,2038.500
4.889204740524292,0,0,32767,2047.938
4.893207788467407,0,0,29900,1868.750
4.89720344543457,0,0,25108,1569.250
4.901204824447632,0,0,22999,1437.438
4.905204772949219,0,0,22109,1381.812
4.90921688079834,0,0,18150,1134.375
4.913200855255127,0,0,18780,1173.750
4.917195558547974,0,0,21568,1348.000
4.921205759048462,0,0,23507,1469.188
4.925206899642944,0,0,20156,1259.750
4.929203033447266,0,0,15628,976.750
4.93320631980896,0,0,17603,1100.188
4.937204122543335,0,0,21629,1351.812
4.94120454788208,0,0,24439,1527.438
4.94520378112793,0,0,32767,2047.938
4.949204444885254,0,0,32767,2047.938
4.953204393386841,0,0,31648,1978.000
4.957214832305908,0,0,26021,1626.312
4.961246967315674,0,0,23034,1439.625
4.965235948562622,0,0,21327,1332.938
4.969232082366943,0,0,19940,1246.250
4.973340272903442,0,0,21173,1323.312
4.977257966995239,0,0,23099,1443.688
4.9812610149383545,0,0,24315,1519.688
4.985259056091309,0,0,32767,2047.938
4.9892449378967285,0,0,32767,2047.938
4.993239641189575,0,0,32496,2031.000
4.997330665588379,0,0,26340,1646.250
5.001264810562134,0,0,23203,1450.188
5.005244016647339,0,0,30597,1912.312
5.009242534637451,0,0,32767,2047.938
5.013242959976196,0,0,31041,1940.062
5.017240285873413,0,0,25947,1621.688
5.02124547958374,0,0,23156,1447.250
5.031742572784424,0,0,32767,2047.938
5.03327202796936,0,0,30850,1928.125
5.037245512008667,0,0,25875,1617.188
5.041269063949585,0,0,23082,1442.625
5.04524040222168,0,0,26964,1685.250
5.049239873886108,0,0,27337,1708.562
5.053244352340698,0,0,24877,1554.812
5.057243585586548,0,0,23426,1464.125
5.061216115951538,0,0,22988,1436.750
5.065206527709961,0,0,24291,1518.188
5.0692057609558105,0,0,22418,1401.125
5.073200941085815,0,0,21649,1353.062
5.077202081680298,0,0,22480,1405.000
5.081209182739258,0,0,23260,1453.750
5.085204839706421,0,0,26258,1641.125
5.089204788208008,0,0,26225,1639.062
5.093206167221069,0,0,24372,1523.250
5.0972020626068115,0,0,23482,1467.625
5.101199150085449,0,0,23257,1453.562
5.105191469192505,0,0,26475,1654.688
5.109194040298462,0,0,23391,1461.938
5.11320686340332,0,0,20654,1290.875
5.117201328277588,0,0,21355,1334.688
5.121208906173706,0,0,22780,1423.750
5.125204801559448,0,0,22748,1421.750
5.129205226898193,0,0,19892,1243.250
5.133206367492676,0,0,20157,1259.812
5.137202024459839,0,0,22295,1393.438
5.141203880310059,0,0,23729,1483.062
5.145205736160278,0,0,26711,1669.438
5.149204730987549,0,0,25747,1609.188
5.153202772140503,0,0,23360,1460.000
5.157201766967773,0,0,22953,1434.562
5.161244630813599,0,0,23306,1456.625
5.165229082107544,0,0,25494,1593.375
5.169228792190552,0,0,23647,1477.938
5.173241376876831,0,0,21501,1343.812
5.17723822593689,0,0,22122,1382.625
5.181246995925903,0,0,23265,1454.062
5.185242414474487,0,0,23797,1487.312
5.189239501953125,0,0,21195,1324.688
5.1932361125946045,0,0,20345,1271.562
5.197230100631714,0,0,22103,1381.438
5.201242446899414,0,0,23687,1480.438
5.205241918563843,0,0,26462,1653.875
5.209240674972534,0,0,27363,1710.188
5.213243246078491,0,0,25311,1581.938
5.217236757278442,0,0,24163,1510.188
5.221243619918823,0,0,23808,1488.000
5.225242614746094,0,0,22364,1397.750
5.229238986968994,0,0,14527,907.938
5.233236789703369,0,0,13499,843.688
5.237237453460693,0,0,18726,1170.375
5.241247892379761,0,0,23375,1460.938
5.245239496231079,0,0,27140,1696.250
5.249239206314087,0,0,27744,1734.000
5.2532408237457275,0,0,25119,1569.938
5.257237911224365,0,0,23959,1497.438
5.261247158050537,0,0,23868,1491.750
5.265239238739014,0,0,23998,1499.875
5.2692389488220215,0,0,20025,1251.562
5.273239850997925,0,0,18508,1156.750
5.277238130569458,0,0,21089,1318.062
5.281247138977051,0,0,23762,1485.125
5.285240411758423,0,0,24752,1547.000
5.289241790771484,0,0,21405,1337.812
5.2932422161102295,0,0,20034,1252.125
5.297237157821655,0,0,21997,1374.812
5.3012425899505615,0,0,24072,1504.500
5.305238723754883,0,0,25667,1604.188
5.309239387512207,0,0,23054,1440.875
5.313511848449707,0,0,20392,1274.500
5.3174684047698975,0,0,21681,1355.062
5.321290731430054,0,0,23754,1484.625
5.3252480030059814,0,0,26189,1636.812
5.329229831695557,0,0,28411,1775.688
5.333237648010254,0,0,26873,1679.562
5.337472677230835,0,0,25370,1585.625
5.341373443603516,0,0,24639,1539.938
5.345242023468018,0,0,26319,1644.938
5.349235534667969,0,0,30888,1930.500
5.353270769119263,0,0,29610,1850.625
5.357244253158569,0,0,26750,1671.875
5.361220121383667,0,0,24838,1552.375
5.365213871002197,0,0,25845,1615.312
5.369201183319092,0,0,28328,1770.500
5.373215436935425,0,0,26420,1651.250
5.377204179763794,0,0,24855,1553.438
5.3812031745910645,0,0,24305,1519.062
5.3851988315582275,0,0,24475,1529.688
5.389199256896973,0,0,23143,1446.438
5.393202543258667,0,0,21941,1371.312
5.397197484970093,0,0,22934,1433.375
5.401200532913208,0,0,24207,1512.938
5.405200242996216,0,0,23655,1478.438
5.409198522567749,0,0,14494,905.875
5.413202285766602,0,0,11171,698.188
5.41719913482666,0,0,16787,1049.188
5.421201467514038,0,0,22978,1436.125
5.425199031829834,0,0,26861,1678.812
5.42919921875,0,0,26649,1665.562
5.433204889297485,0,0,22053,1378.312
5.437198877334595,0,0,23538,1471.125
5.441204071044922,0,0,24212,1513.250
5.445191860198975,0,0,12094,755.875
5.449191093444824,0,0,4814,300.875
5.453205823898315,0,0,11483,717.688
5.457200527191162,0,0,21082,1317.625
5.461245536804199,0,0,26682,1667.625
5.465246200561523,0,0,25141,1571.312
5.4692394733428955,0,0,21065,1316.562
5.473239898681641,0,0,21616,1351.000
5.477236270904541,0,0,23916,1494.750
5.4812469482421875,0,0,25620,1601.250
5.4852378368377686,0,0,22422,1401.375
5.489237070083618,0,0,18011,1125.688
5.493239402770996,0,0,19888,1243.000
5.4972357749938965,0,0,23576,1473.500
5.501239538192749,0,0,25561,1597.562
5.505236625671387,0,0,21918,1369.875
5.509235858917236,0,0,18603,1162.688
5.51323938369751,0,0,20784,1299.000
5.517235517501831,0,0,24175,1510.938
5.521242141723633,0,0,25763,1610.188
5.525238037109375,0,0,19931,1245.688
5.529237985610962,0,0,14752,922.000
5.5332396030426025,0,0,18033,1127.062
5.537230491638184,0,0,23352,1459.500
5.541236639022827,0,0,26719,1669.938
5.545237064361572,0,0,25962,1622.625
5.549236536026001,0,0,20968,1310.500
5.553235769271851,0,0,21140,1321.250
5.557234525680542,0,0,23820,1488.750
5.561283826828003,0,0,26275,1642.188
5.565236330032349,0,0,26094,1630.875
5.569238185882568,0,0,20656,1291.000
5.573238134384155,0,0,20642,1290.125
5.577233552932739,0,0,23532,1470.750
5.581237316131592,0,0,25472,1592.000
5.585235118865967,0,0,21334,1333.375
5.589235305786133,0,0,16023,1001.438
5.593236684799194,0,0,18502,1156.375
5.59723424911499,0,0,23416,1463.500
5.601240396499634,0,0,26484,1655.250
5.605234384536743,0,0,25213,1575.812
5.609235763549805,0,0,20014,1250.875
5.613231897354126,0,0,20522,1282.625
5.617222547531128,0,0,23773,1485.812
5.621234893798828,0,0,25786,1611.625
5.6252357959747314,0,0,18878,1179.875
5.629235029220581,0,0,11072,692.000
5.633233308792114,0,0,14896,931.000
5.637232303619385,0,0,22339,1396.188
5.641241788864136,0,0,26828,1676.750
5.645234107971191,0,0,25377,1586.062
5.649236440658569,0,0,18947,1184.188
5.653236150741577,0,0,19394,1212.125
5.65723180770874,0,0,23360,1460.000
5.661247491836548,0,0,26389,1649.312
5.665193557739258,0,0,30439,1902.438
5.669188499450684,0,0,29265,1829.062
5.673197507858276,0,0,26981,1686.312
5.67719578742981,0,0,26090,1630.625
5.681201219558716,0,0,25938,1621.125
5.685196399688721,0,0,24357,1522.312
5.68919825553894,0,0,18583,1161.438
5.693199157714844,0,0,19170,1198.125
5.697194576263428,0,1,23253,1453.312
5.7011964321136475,0,0,26159,1634.938
5.705196857452393,0,0,26589,1661.812
5.709197521209717,0,0,22103,1381.438
5.713196039199829,0,0,21632,1352.000
5.7171947956085205,0,1,24099,1506.188
5.721200942993164,0,0,26137,1633.562
5.725196599960327,0,0,30005,1875.312
5.7291953563690186,0,0,27422,1713.875
5.733197212219238,0,0,24824,1551.500
5.737193822860718,1,1,24875,1554.688
5.741196870803833,0,0,25568,1598.000
5.745197057723999,0,0,23400,1462.500
5.749195098876953,0,0,16621,1038.812
5.753191232681274,0,0,17419,1088.688
5.757187366485596,1,1,22476,1404.750
5.7612082958221436,0,0,26084,1630.250
5.765237808227539,0,0,25060,1566.250
5.76923394203186,0,0,19419,1213.688
5.773236036300659,0,0,19661,1228.812
5.7772297859191895,1,1,23439,1464.938
5.781234264373779,0,0,26151,1634.438
5.78523588180542,0,0,20411,1275.688
5.789230585098267,0,0,7366,460.375
5.793233156204224,0,0,9079,567.438
5.797231674194336,1,1,18831,1176.938
5.801237344741821,0,0,26217,1638.562
5.805231332778931,0,0,27750,1734.375
5.809232234954834,0,0,20206,1262.875
5.813233375549316,0,0,18556,1159.750
5.817229747772217,1,1,22420,1401.250
5.821232080459595,0,0,25971,1623.188
5.825232744216919,0,0,22108,1381.750
5.829231023788452,0,0,10479,654.938
5.833230018615723,0,0,11689,730.562
5.837229490280151,1,1,20236,1264.750
5.841236591339111,0,0,26644,1665.250
5.8452324867248535,0,0,28910,1806.875
5.84923243522644,0,0,25908,1619.250
5.853233098983765,0,0,24138,1508.625
5.857228755950928,1,1,25226,1576.625
5.861244440078735,0,0,26557,1659.812
5.865201234817505,0,0,20800,1300.000
5.869196891784668,0,0,7839,489.938
5.87319278717041,0,0,9268,579.250
5.877191543579102,1,1,19018,1188.625
5.88119912147522,0,0,26613,1663.312
5.885195016860962,0,0,23048,1440.500
5.889192342758179,0,0,8305,519.062
5.893195867538452,0,0,6446,402.875
5.897191524505615,1,1,14949,934.312
5.901195526123047,0,0,24316,1519.750
5.9051947593688965,0,0,24005,1500.312
5.909194231033325,0,0,9709,606.812
5.913189172744751,0,0,8372,523.250
5.917184591293335,1,1,17451,1090.688
5.921191930770874,0,0,26011,1625.688
5.9251909255981445,0,0,23257,1453.562
5.92919397354126,0,0,8838,552.375
5.933196783065796,0,0,6166,385.375
5.937191724777222,1,1,13651,853.188
5.941193580627441,0,0,23559,1472.438
5.945192337036133,0,0,25835,1614.688
5.949191570281982,0,0,15263,953.938
5.953193187713623,0,0,14180,886.250
5.957190990447998,1,0,21214,1325.875
5.961194753646851,0,0,27415,1713.438
5.965282678604126,0,0,25762,1610.125
5.969241142272949,0,0,13102,818.875
5.973235368728638,0,0,12243,765.188
5.977228879928589,0,0,20455,1278.438
5.981232643127441,0,0,27555,1722.188
5.985229730606079,0,0,25391,1586.938
5.989230394363403,0,0,10286,642.875
5.993229627609253,0,0,7532,470.750
5.997227191925049,1,1,15594,974.625
6.001237392425537,0,0,25159,1572.438
6.0052313804626465,0,0,27168,1698.000
6.009229898452759,0,0,12533,783.312
6.013233423233032,0,0,8300,518.750
6.017225980758667,1,0,16103,1006.438
6.02123236656189,0,0,25543,1596.438
6.025231122970581,0,0,28997,1812.312
6.035703659057617,0,0,18900,1181.250
6.037259340286255,1,1,26614,1663.375
6.04125189781189,0,0,30040,1877.500
6.0452306270599365,0,0,22204,1387.750
6.04922890663147,0,0,17980,1123.750
6.053228855133057,0,0,22133,1383.312
6.0572264194488525,1,1,27329,1708.062
6.061230659484863,0,0,28563,1785.188
6.065224885940552,0,0,15751,984.438
6.069194555282593,0,0,10228,639.250
6.073193311691284,0,0,17663,1103.938
6.077189922332764,1,1,26444,1652.750
6.0811944007873535,0,0,28711,1794.438
6.08519172668457,0,0,13385,836.562
6.0891923904418945,0,0,7142,446.375
6.093193531036377,0,0,11554,722.125
6.097187042236328,1,1,21730,1358.125
6.101192235946655,0,0,25676,1604.750
6.105191946029663,0,0,11806,737.875
6.109189033508301,0,0,7032,439.500
6.113188028335571,0,0,11598,724.875
6.117186069488525,1,1,21845,1365.312
6.12118935585022,0,0,26502,1656.375
6.125182151794434,0,0,12624,789.000
6.129180192947388,0,0,7214,450.875
6.133190631866455,0,0,9528,595.500
6.137189149856567,1,1,19193,1199.562
6.141191720962524,0,0,27403,1712.688
6.145191431045532,0,0,20825,1301.562
6.149190902709961,0,0,14436,902.250
6.153189420700073,0,0,19498,1218.625
6.15718674659729,1,1,27028,1689.250
6.161188364028931,0,0,29980,1873.750
6.165192365646362,0,0,16868,1054.250
6.169222116470337,0,0,9436,589.750
6.17323112487793,0,0,15543,971.438
6.177227258682251,1,1,25425,1589.062
6.181231737136841,0,0,30321,1895.062
6.185230016708374,0,0,18088,1130.500
6.189227819442749,0,0,9897,618.562
6.193226337432861,0,0,15872,992.000
6.197225570678711,1,1,25682,1605.125
6.201228141784668,0,0,31282,1955.125
6.205228090286255,0,0,23543,1471.438
6.209227561950684,0,0,14875,929.688
6.2132298946380615,0,0,18857,1178.562
6.217223644256592,1,1,26546,1659.125
6.221227407455444,0,0,29958,1872.375
6.225227355957031,0,0,15912,994.500
6.22922682762146,0,0,8348,521.750
6.233220100402832,0,0,10326,645.375
6.237214803695679,1,1,20034,1252.125
6.241224050521851,0,0,28144,1759.000
6.245227575302124,0,0,20233,1264.562
6.249224424362183,0,0,11937,746.062
6.253230810165405,0,0,17468,1091.750
6.257222652435303,1,0,26597,1662.312
6.261226654052734,0,0,31685,1980.312
6.265228033065796,0,0,24653,1540.812
6.2692413330078125,0,0,15309,956.812
6.273225784301758,0,0,18736,1171.000
6.2772216796875,1,1,26480,1655.000
6.281235218048096,0,0,31081,1942.562
6.285228490829468,0,0,24626,1539.125
6.289224147796631,0,0,15193,949.562
6.29322624206543,0,0,18460,1153.750
6.297223329544067,1,1,26262,1641.375
6.301225423812866,0,0,30835,1927.188
6.305226564407349,0,0,24791,1549.438
6.3092241287231445,0,0,17470,1091.875
6.313506126403809,0,0,20678,1292.375
6.317468881607056,1,1,27294,1705.875
6.321285963058472,0,0,31053,1940.812
6.325221538543701,0,0,26172,1635.750
6.329216003417969,0,0,20652,1290.750
6.3334290981292725,0,0,23225,1451.562
6.337413787841797,1,1,28246,1765.375
6.341259479522705,0,0,30992,1937.000
6.345219135284424,0,0,22608,1413.000
6.349233150482178,0,0,11704,731.500
6.3533008098602295,0,0,15866,991.625
6.357235908508301,1,1,25315,1582.188
6.361248016357422,0,0,30961,1935.062
6.365230083465576,0,0,21261,1328.812
6.369224309921265,0,0,9834,614.625
6.373198509216309,0,0,11711,731.938
6.37719464302063,1,1,21579,1348.688
6.381195068359375,0,0,29553,1847.062
6.385190963745117,0,0,24860,1553.750
6.389189720153809,0,0,14044,877.750
6.393199443817139,0,0,16836,1052.250
6.397193670272827,1,1,25405,1587.812
6.401192903518677,0,0,31049,1940.562
6.405182361602783,0,0,26387,1649.188
6.4091796875,0,0,16125,1007.812
6.413186073303223,0,0,18127,1132.938
6.417181968688965,1,1,25748,1609.250
6.421194076538086,0,0,30915,1932.188
6.42519474029541,0,0,23412,1463.250
6.429193019866943,0,0,10648,665.500
6.433194398880005,0,0,11611,725.688
6.437194585800171,1,1,21261,1328.812
6.441199064254761,0,0,29476,1842.250
6.445192337036133,0,0,25906,1619.125
6.449192762374878,0,0,13158,822.375
6.453196287155151,0,0,14811,925.688
6.457190990447998,1,1,24100,1506.250
6.461197853088379,0,0,30824,1926.500
6.465193748474121,0,0,23643,1477.688
6.469264030456543,0,0,10783,673.938
6.473243236541748,0,0,10355,647.188
6.477234125137329,1,1,19350,1209.375
6.481232166290283,0,0,28446,1777.875
6.485217094421387,0,0,26608,1663.000
6.489217758178711,0,0,13523,845.188
6.493235111236572,0,0,14469,904.312
6.497232437133789,1,1,23790,1486.875
6.5012383460998535,0,0,30939,1933.688
6.505230903625488,0,0,25895,1618.438
6.509232759475708,0,0,11848,740.500
6.513235092163086,0,0,11033,689.562
6.517232418060303,1,1,20055,1253.438
6.521238803863525,0,0,29002,1812.625
6.525228977203369,0,0,26736,1671.000
6.529232740402222,0,0,12517,782.312
6.533236503601074,0,0,11529,720.562
6.537227630615234,1,1,20588,1286.750
6.541234016418457,0,0,29387,1836.688
6.545228481292725,0,0,28684,1792.750
6.549227237701416,0,0,15084,942.750
6.5532310009002686,0,0,14531,908.188
6.557231903076172,1,1,23398,1462.375
6.561237096786499,0,0,30821,1926.312
6.565229892730713,0,0,26508,1656.750
6.5693042278289795,0,0,12237,764.812
6.573195695877075,0,0,10596,662.250
6.577192306518555,1,1,19047,1190.438
6.58119797706604,0,0,28494,1780.875
6.585189580917358,0,0,27128,1695.500
6.589191675186157,0,0,12777,798.562
6.593191862106323,0,0,9954,622.125
6.597192287445068,1,1,17233,1077.062
6.6011962890625,0,0,27131,1695.688
6.605190992355347,0,0,25954,1622.125
6.60918927192688,0,0,12484,780.250
6.613194227218628,0,0,10367,647.938
6.617189407348633,1,1,18213,1138.312
6.621192693710327,0,0,27984,1749.000
6.625191688537598,0,0,29672,1854.500
6.629190683364868,0,0,17739,1108.688
6.633185386657715,0,0,16168,1010.500
6.637179613113403,1,1,23984,1499.000
6.641193389892578,0,0,31093,1943.312
6.645191192626953,0,0,15920,995.000
6.649189472198486,0,0,13925,870.312
6.65319299697876,0,0,22753,1422.062
6.657190322875977,1,1,30859,1928.688
6.6611857414245605,0,0,29980,1873.750
6.665177822113037,0,0,14477,904.812
6.6692328453063965,0,0,10213,638.312
6.6732401847839355,0,0,16535,1033.438
6.6772301197052,1,1,26620,1663.750
6.681234121322632,0,0,29473,1842.062
6.685226678848267,0,0,16456,1028.500
6.689224004745483,0,0,14024,876.500
6.6932289600372314,0,0,22605,1412.812
6.697226285934448,1,1,30833,1927.062
6.701229810714722,0,0,30285,1892.812
6.705225467681885,0,0,14894,930.875
6.709224700927734,0,0,10589,661.812
6.7132251262664795,0,0,17178,1073.625
6.717224359512329,1,1,27217,1701.062
6.721234083175659,0,0,32114,2007.125
6.725224494934082,0,0,21458,1341.125
6.729224681854248,0,0,16415,1025.938
6.733254909515381,0,0,22687,1417.938
6.737232208251953,1,1,30155,1884.688
6.741229772567749,0,0,32207,2012.938
6.745225667953491,0,0,19840,1240.000
6.749226808547974,0,0,14755,922.188
6.753230094909668,0,0,21852,1365.750
6.757225751876831,1,1,30050,1878.125
6.761233329772949,0,0,30799,1924.938
6.765228033065796,0,0,15434,964.625
6.769226312637329,0,0,10019,626.188
6.773310899734497,0,0,13982,873.875
6.777193546295166,1,1,24124,1507.750
6.7811901569366455,0,0,29575,1848.438
6.785189390182495,0,0,16037,1002.312
6.78918981552124,0,0,10524,657.750
6.793189525604248,0,0,15518,969.875
6.797188758850098,1,1,25727,1607.938
6.801194190979004,0,0,30153,1884.562
6.805188179016113,0,0,16164,1010.250
6.8091888427734375,0,0,10495,655.938
6.813193321228027,0,0,14577,911.062
6.817187309265137,1,1,24763,1547.688
6.821188449859619,0,0,30534,1908.375
6.825187921524048,0,0,17447,1090.438
6.829188108444214,0,0,11302,706.375
6.833188772201538,0,0,16807,1050.438
6.837188243865967,1,1,26961,1685.062
6.841194152832031,0,0,31689,1980.562
6.845186710357666,0,0,17991,1124.438
6.84918737411499,0,0,11313,707.062
6.853191614151001,0,0,16119,1007.438
6.857187509536743,1,1,26316,1644.750
6.861188888549805,0,0,31808,1988.000
6.865187168121338,0,0,18846,1177.875
6.869186639785767,0,0,11814,738.375
6.873219013214111,0,0,17204,1075.250
6.877230644226074,1,1,27331,1708.188
6.881234884262085,0,0,32752,2047.000
6.885224342346191,0,0,20015,1250.938
6.889224529266357,0,0,12121,757.562
6.893233060836792,0,0,17288,1080.500
6.8972249031066895,1,1,27376,1711.000
6.901226282119751,0,0,32690,2043.125
6.905224800109863,0,0,19003,1187.688
6.909224033355713,0,0,11313,707.062
6.91321873664856,0,0,13043,815.188
6.917213439941406,1,1,22634,1414.625
6.921224117279053,0,0,30449,1903.062
6.9252238273620605,0,0,18994,1187.125
6.929224729537964,0,0,11503,718.938
6.933228492736816,0,0,14137,883.562
6.937222480773926,1,1,24113,1507.062
6.941225528717041,0,0,31588,1974.250
6.945227861404419,0,0,21673,1354.562
6.949225664138794,0,0,13534,845.875
6.953224420547485,0,0,19560,1222.500
6.957222938537598,1,1,29290,1830.625
6.961228609085083,0,0,32767,2047.938
6.965222120285034,0,0,20512,1282.000
6.96922755241394,0,0,11851,740.688
6.973242998123169,0,0,12875,804.688
6.977189779281616,1,1,22226,1389.125
6.981190919876099,0,0,30111,1881.938
6.985185861587524,0,0,18772,1173.250
6.989185810089111,0,0,11611,725.688
6.993188381195068,0,0,12108,756.750
6.997187852859497,1,1,20839,1302.438
7.0011913776397705,0,0,30017,1876.062
7.005185604095459,0,0,26602,1662.625
7.0091845989227295,0,0,20766,1297.875
7.0131895542144775,0,0,24534,1533.375
7.017184257507324,1,1,31011,1938.188
7.0211875438690186,0,0,32767,2047.938
7.02518630027771,0,0,23466,1466.625
7.029183864593506,0,0,13103,818.938
7.038537502288818,1,1,26793,1674.562
7.04121470451355,0,0,32767,2047.938
7.045187473297119,0,0,23144,1446.500
7.049185514450073,0,0,12628,789.250
7.053189754486084,0,0,13381,836.312
7.057184934616089,1,1,22749,1421.812
7.061188459396362,0,0,31320,1957.500
7.065183401107788,0,0,23436,1464.750
7.069183826446533,0,0,12935,808.438
7.073188543319702,0,0,14860,928.750
7.077200174331665,1,1,24733,1545.812
7.081186532974243,0,0,32650,2040.625
7.08518385887146,0,0,24592,1537.000
7.089183330535889,0,0,13291,830.688
7.093188285827637,0,0,14995,937.188
7.097183465957642,1,1,24828,1551.750
7.101185083389282,0,0,32750,2046.875
7.10518479347229,0,0,23749,1484.312
7.109183311462402,0,0,12955,809.688
7.113184690475464,0,0,11990,749.375
7.11718225479126,1,1,19862,1241.375
7.121182680130005,0,0,29588,1849.250
7.125171184539795,0,0,24555,1534.688
7.129172325134277,0,0,13457,841.062
7.133186101913452,0,0,14513,907.062
7.137183427810669,1,1,24127,1507.938
7.141178369522095,0,0,32551,2034.438
7.145171165466309,0,0,24610,1538.125
7.149169445037842,0,0,13337,833.562
7.153181791305542,0,0,11349,709.312
7.157181262969971,1,1,16978,1061.125
7.16118049621582,0,0,27076,1692.250
7.165169954299927,0,0,22769,1423.062
7.169170379638672,0,0,13114,819.625
7.173185348510742,0,0,11324,707.750
7.177197217941284,1,1,16311,1019.438
7.181227207183838,0,0,26438,1652.375
7.185222148895264,0,0,23777,1486.062
7.189217805862427,0,0,13598,849.875
7.193219900131226,0,0,12062,753.875
7.197216510772705,1,1,18764,1172.750
7.201225519180298,0,0,28860,1803.750
7.205220460891724,0,0,29421,1838.812
7.209218502044678,0,0,19216,1201.000
7.213232040405273,0,0,20409,1275.562
7.217205047607422,1,1,28567,1785.438
7.221216917037964,0,0,32767,2047.938
7.225220441818237,0,0,27957,1747.312
7.229219436645508,0,0,14759,922.438
7.233218669891357,0,0,13515,844.688
7.237218618392944,1,1,21958,1372.375
7.241225004196167,0,0,31420,1963.750
7.245217323303223,0,0,27644,1727.750
7.249215841293335,0,0,12084,755.250
7.2532243728637695,0,0,17861,1116.312
7.2572197914123535,1,1,28071,1754.438
7.261220932006836,0,0,27397,1712.312
7.265218257904053,0,0,14929,933.062
7.269217252731323,0,0,13021,813.812
7.273220777511597,0,0,20630,1289.375
7.27722954750061,1,1,30529,1908.062
7.2811925411224365,0,0,30087,1880.438
7.285181760787964,0,0,16053,1003.312
7.28917932510376,0,0,13366,835.375
7.293184280395508,0,0,20852,1303.250
7.29718017578125,1,1,30667,1916.688
7.301180839538574,0,0,29381,1836.312
7.30518102645874,0,0,15760,985.000
7.309181451797485,0,0,13378,836.125
7.313471794128418,0,0,20978,1311.125
7.317373037338257,0,0,30820,1926.250
7.321214199066162,0,0,32008,2000.500
7.325198650360107,0,0,20773,1298.312
7.329188585281372,0,0,20426,1276.625
7.333185434341431,0,0,28118,1757.375
7.337243318557739,1,1,32767,2047.938
7.341196298599243,0,0,31761,1985.062
7.3453168869018555,0,0,16712,1044.500
7.349313497543335,0,0,14387,899.188
7.353208303451538,0,0,22782,1423.875
7.357183933258057,1,1,32109,2006.812
7.361186742782593,0,0,32226,2014.125
7.365232467651367,0,0,17305,1081.562
7.3692004680633545,0,0,13805,862.812
7.373206853866577,0,0,21397,1337.312
7.377188205718994,1,0,31131,1945.688
7.381187677383423,0,0,31619,1976.188
7.3851823806762695,0,0,16855,1053.438
7.389180898666382,0,0,12813,800.812
7.393184185028076,0,0,18701,1168.812
7.397181272506714,1,1,28869,1804.312
7.401183605194092,0,0,30938,1933.625
7.405179500579834,0,0,16874,1054.625
7.4091796875,0,0,12644,790.250
7.413176536560059,0,0,17669,1104.312
7.417171239852905,1,1,27933,1745.812
7.4211812019348145,0,0,31762,1985.125
7.425179958343506,0,0,17752,1109.500
7.4291791915893555,0,0,13054,815.875
7.433181285858154,0,0,18483,1155.188
7.437179327011108,1,1,28671,1791.938
7.441177606582642,0,0,30165,1885.312
7.445167779922485,0,0,16385,1024.062
7.449169158935547,0,0,12385,774.062
7.453186273574829,0,0,12903,806.438
7.457179546356201,1,1,20814,1300.875
7.461185693740845,0,0,26971,1685.688
7.465181350708008,0,0,16429,1026.812
7.469186067581177,0,0,12751,796.938
7.473182439804077,0,0,17006,1062.875
7.477180242538452,1,0,27225,1701.562
7.481229305267334,0,0,31717,1982.312
7.485218286514282,0,0,18146,1134.125
7.489214897155762,0,0,13119,819.938
7.493220329284668,0,0,16388,1024.250
7.497219562530518,1,0,26430,1651.875
7.501219272613525,0,0,31585,1974.062
7.505216121673584,0,0,18235,1139.688
7.5092175006866455,0,0,13150,821.875
7.513219594955444,0,0,14743,921.438
7.5172178745269775,0,0,23966,1497.875
7.52121114730835,0,0,31288,1955.500
7.525202512741089,0,0,19900,1243.750
7.5292041301727295,0,0,14288,893.000
7.5332207679748535,0,0,20093,1255.812
7.537215948104858,0,0,30230,1889.375
7.541222095489502,0,0,32767,2047.938
7.545217990875244,0,0,19456,1216.000
7.549215793609619,0,0,13508,844.250
7.553215265274048,0,0,13598,849.875
7.557215690612793,1,0,21445,1340.312
7.561223268508911,0,0,29890,1868.125
7.565215587615967,0,0,19862,1241.375
7.569216251373291,0,0,14038,877.375
7.573221921920776,0,0,18622,1163.875
7.577216148376465,0,0,28872,1804.500
7.5812201499938965,0,0,32767,2047.938
7.585214376449585,0,0,21207,1325.438
7.589214324951172,0,0,14129,883.062
7.593217611312866,0,0,17227,1076.688
7.597215414047241,0,0,27292,1705.750
7.60122013092041,0,0,32767,2047.938
7.605216979980469,0,0,20437,1277.312
7.609216213226318,0,0,13892,868.250
7.6132190227508545,0,0,15180,948.750
7.617213487625122,0,0,24460,1528.750
7.6212193965911865,0,0,32425,2026.562
7.625215291976929,0,0,20979,1311.188
7.6292150020599365,0,0,14075,879.688
7.633214473724365,0,0,14767,922.938
7.637214183807373,0,0,23617,1476.062
7.6412224769592285,0,0,32157,2009.812
7.645214557647705,0,0,22407,1400.438
7.649214267730713,0,0,15069,941.812
7.653210401535034,0,0,20190,1261.875
7.657201528549194,0,0,30343,1896.438
7.661207914352417,0,0,32767,2047.938
7.665201425552368,0,0,22970,1435.625
7.669198274612427,0,0,15209,950.562
7.673220872879028,0,0,20381,1273.812
7.677217721939087,0,1,30515,1907.188
7.681260347366333,0,0,32767,2047.938
7.685215473175049,0,0,22046,1377.875
7.689213991165161,0,0,14305,894.062
7.693220853805542,0,0,14699,918.688
7.697211742401123,0,0,23442,1465.125
7.701214790344238,0,0,32119,2007.438
7.705214023590088,0,0,21656,1353.500
7.709212779998779,0,0,14299,893.688
7.713210821151733,0,0,13515,844.688
7.717213869094849,0,0,20212,1263.250
7.721224546432495,0,0,29723,1857.688
7.725217580795288,0,0,21606,1350.375
7.7292163372039795,0,0,14426,901.625
7.733219623565674,0,0,14127,882.938
7.737213850021362,0,0,21823,1363.938
7.74121618270874,0,0,31087,1942.938
7.745215654373169,0,0,22238,1389.875
7.749213695526123,0,0,14683,917.688
7.7532172203063965,0,0,15937,996.062
7.757214069366455,0,0,25354,1584.625
7.761220216751099,0,0,32767,2047.938
7.765214681625366,0,0,24992,1562.000
7.769210577011108,0,0,15318,957.375
7.773220062255859,0,0,15578,973.625
7.777214765548706,1,1,24553,1534.562
7.781234264373779,0,0,32767,2047.938
7.785181045532227,0,0,24166,1510.375
7.789177179336548,0,0,15149,946.812
7.793177366256714,0,0,13579,848.688
7.797176122665405,0,0,18690,1168.125
7.801177978515625,0,0,28599,1787.438
7.805176734924316,0,0,23266,1454.125
7.809175729751587,0,0,15112,944.500
7.81320595741272,0,0,14319,894.938
7.817180633544922,0,1,21512,1344.500
7.821176528930664,0,0,31425,1964.062
7.825174570083618,0,0,25599,1599.938
7.829176187515259,0,0,15725,982.812
7.8331732749938965,0,0,14306,894.125
7.83717155456543,1,1,20886,1305.375
7.8411784172058105,0,0,30838,1927.375
7.84517240524292,0,0,25073,1567.062
7.8491737842559814,0,0,15680,980.000
7.85317587852478,0,0,14325,895.312
7.857174634933472,1,1,30834,1927.125
7.861174583435059,0,0,25893,1618.312
7.865171909332275,0,0,15976,998.500
7.869171380996704,0,0,14944,934.000
7.873176097869873,0,0,22565,1410.312
7.8771750926971436,1,1,32480,2030.000
7.881190299987793,0,0,28189,1761.812
7.8852152824401855,0,0,16645,1040.312
7.889211654663086,0,0,15294,955.875
7.893213987350464,0,0,23067,1441.688
7.897209167480469,1,1,32767,2047.938
7.901211977005005,0,0,29273,1829.562
7.90520977973938,0,0,16979,1061.188
7.909209251403809,0,0,15131,945.688
7.913205623626709,0,0,22474,1404.625
7.917198896408081,1,1,32404,2025.250
7.9212117195129395,0,0,28485,1780.312
7.925210475921631,0,0,16751,1046.938
7.929211616516113,0,0,15436,964.750
7.933216094970703,0,0,23356,1459.750
7.937208414077759,1,1,32767,2047.938
7.941212892532349,0,0,29702,1856.375
7.945211172103882,0,0,17111,1069.438
7.9492104053497314,0,0,14732,920.750
7.953212261199951,0,0,21028,1314.250
7.95721173286438,1,1,31200,1950.000
7.961216449737549,0,0,28947,1809.188
7.965208053588867,0,0,17015,1063.438
7.969210624694824,0,0,14681,917.562
7.973214149475098,0,0,20737,1296.062
7.977208375930786,1,1,30936,1933.500
7.9812171459198,0,0,30151,1884.438
7.985252618789673,0,0,17509,1094.312
7.9892096519470215,0,0,15072,942.000
7.9932122230529785,0,0,21750,1359.375
7.997210264205933,1,1,31851,1990.688
8.00121808052063,0,0,31369,1960.562
8.005210638046265,0,0,18106,1131.625
8.009210348129272,0,0,16668,1041.750
8.01320767402649,0,0,25263,1578.938
8.017199277877808,1,1,32767,2047.938
8.021209001541138,0,0,31978,1998.625
8.0252103805542,0,0,17965,1122.812
8.029208898544312,0,0,14632,914.500
8.033214569091797,0,0,19423,1213.938
8.043827772140503,0,0,30455,1903.438
8.045228958129883,0,0,17782,1111.375
8.049213886260986,0,0,14483,905.188
8.053221225738525,0,0,18097,1131.062
8.057209014892578,1,1,28071,1754.438
8.06121301651001,0,0,30396,1899.750
8.06520938873291,0,0,18044,1127.750
8.069206237792969,0,0,14622,913.875
8.073208332061768,0,0,18296,1143.500
8.07721209526062,1,1,28305,1769.062
8.081215858459473,0,0,30541,1908.812
8.085204839706421,0,0,18151,1134.438
8.089175462722778,0,0,14682,917.625
8.093172073364258,0,0,17905,1119.062
8.09717082977295,1,1,27781,1736.312
8.101173162460327,0,0,31418,1963.625
8.105170249938965,0,0,18768,1173.000
8.109170913696289,0,0,14905,931.562
8.113170623779297,0,0,18379,1148.688
8.117169618606567,1,1,28357,1772.312
8.121175289154053,0,0,31023,1938.938
8.125169038772583,0,0,18448,1153.000
8.129168272018433,0,0,14821,926.312
8.133172512054443,0,0,16086,1005.375
8.137169122695923,1,1,24820,1551.250
8.1411714553833,0,0,29304,1831.500
8.145167827606201,0,0,18230,1139.375
8.149168968200684,0,0,14888,930.500
8.153171300888062,0,0,16074,1004.625
8.157169342041016,1,1,24709,1544.312
8.16116738319397,0,0,30007,1875.438
8.165156841278076,0,0,18795,1174.688
8.169159173965454,0,0,15115,944.688
8.17317271232605,0,0,16521,1032.562
8.177170276641846,1,1,25393,1587.062
8.181174516677856,0,0,30703,1918.938
8.185183048248291,0,0,19185,1199.062
8.189213037490845,0,0,15286,955.375
8.193211555480957,0,0,16620,1038.750
8.197210788726807,1,1,25488,1593.000
8.201212167739868,0,0,31307,1956.688
8.205207347869873,0,0,19652,1228.250
8.209213972091675,0,0,15462,966.375
8.213210582733154,0,0,16913,1057.062
8.217204332351685,1,1,25930,1620.625
8.221206903457642,0,0,31934,1995.875
8.225207805633545,0,0,20021,1251.312
8.229206562042236,0,0,15604,975.250
8.233203172683716,0,0,17212,1075.750
8.237204790115356,1,1,26400,1650.000
8.241207361221313,0,0,32767,2047.938
8.245208024978638,0,0,21086,1317.875
8.249209642410278,0,0,15865,991.562
8.253210544586182,0,0,16852,1053.250
8.257206439971924,1,1,25641,1602.562
8.261209964752197,0,0,32767,2047.938
8.265207052230835,0,0,21024,1314.000
8.269207000732422,0,0,15899,993.688
8.273207664489746,0,0,16319,1019.938
8.277207374572754,1,1,24456,1528.500
8.281214237213135,0,0,32114,2007.125
8.285217523574829,0,0,21026,1314.125
8.289174318313599,0,0,15964,997.750
8.29317569732666,0,0,16513,1032.062
8.297165870666504,1,1,24818,1551.125
8.30116868019104,0,0,32237,2014.812
8.305169582366943,0,0,20975,1310.938
8.30916690826416,0,0,16015,1000.938
8.313467025756836,0,0,16150,1009.375
8.317360162734985,1,1,23835,1489.688
8.321218967437744,0,0,32397,2024.812
8.325188398361206,0,0,22167,1385.438
8.329169988632202,0,0,16322,1020.125
8.333234071731567,0,0,16526,1032.875
8.338693857192993,0,0,32644,2040.250
8.341199398040771,0,0,32644,2040.250
8.345169305801392,0,0,21644,1352.750
8.349213123321533,0,0,16267,1016.688
8.353173971176147,0,0,15829,989.312
8.357166051864624,1,1,22433,1402.062
8.361159324645996,0,0,31137,1946.062
8.365153789520264,0,0,21635,1352.188
8.369152784347534,0,0,16344,1021.500
8.373156785964966,0,0,16209,1013.062
8.377159357070923,1,1,23522,1470.125
8.38115644454956,0,0,32102,2006.375
8.385150671005249,0,0,21988,1374.250
8.389258861541748,0,0,16484,1030.250
8.393211364746094,0,0,16601,1037.562
8.397197484970093,1,1,24489,1530.562
8.40120005607605,0,0,32767,2047.938
8.405198097229004,0,0,23241,1452.562
8.40920090675354,0,0,16779,1048.688
8.413203001022339,0,0,15648,978.000
8.417197942733765,1,0,20270,1266.875
8.421204566955566,0,0,29642,1852.625
8.425201654434204,0,0,22717,1419.812
8.429201126098633,0,0,16761,1047.562
8.433202505111694,0,0,16482,1030.125
8.437201499938965,1,1,23781,1486.312
8.441209554672241,0,0,32767,2047.938
8.445199728012085,0,0,24597,1537.312
8.449199438095093,0,0,17196,1074.750
8.453205108642578,0,0,17334,1083.375
8.457201480865479,1,1,25794,1612.125
8.461204051971436,0,0,25351,1584.438
8.465198755264282,0,0,17348,1084.250
8.469208002090454,0,0,17080,1067.500
8.473215341567993,0,0,25139,1571.188
8.477200984954834,1,1,32767,2047.938
8.48120403289795,0,0,26026,1626.625
8.485186338424683,0,0,17491,1093.188
8.489267110824585,0,0,16039,1002.438
8.49317717552185,0,0,21315,1332.188
8.497167110443115,1,0,31137,1946.062
8.501169919967651,0,0,24749,1546.812
8.505162477493286,0,0,17275,1079.688
8.50916337966919,0,0,15990,999.375
8.513165473937988,0,0,20986,1311.625
8.517162799835205,1,1,30990,1936.875
8.521166324615479,0,0,26612,1663.250
8.525161743164062,0,0,17775,1110.938
8.529163360595703,0,0,16519,1032.438
8.533165454864502,0,0,22956,1434.750
8.537160634994507,1,0,32767,2047.938
8.541164875030518,0,0,27383,1711.438
8.545162916183472,0,0,17951,1121.938
8.549163103103638,0,0,16095,1005.938
8.553163051605225,0,0,20235,1264.688
8.55716347694397,1,0,30129,1883.062
8.561168909072876,0,0,26468,1654.250
8.565161228179932,0,0,17823,1113.938
8.569160461425781,0,0,16101,1006.312
8.573164463043213,0,0,20014,1250.875
8.57716178894043,0,0,29897,1868.562
8.581164836883545,0,0,27374,1710.875
8.585160493850708,0,0,18142,1133.875
8.589219808578491,0,0,16668,1041.750
8.593206882476807,0,0,22908,1431.750
8.59719967842102,1,0,32767,2047.938
8.601206302642822,0,0,29547,1846.688
8.60519790649414,0,0,18658,1166.125
8.609197616577148,0,0,16307,1019.188
8.613204002380371,0,0,19754,1234.625
8.617197513580322,1,1,29566,1847.875
8.621200323104858,0,0,28592,1787.000
8.625195503234863,0,0,18551,1159.438
8.629197597503662,0,0,16616,1038.500
8.633201837539673,0,0,22082,1380.125
8.637197971343994,1,0,32228,2014.250
8.641202926635742,0,0,28905,1806.562
8.645198106765747,0,0,18544,1159.000
8.64919900894165,0,0,16290,1018.125
8.65320372581482,0,0,18207,1137.938
8.65719723701477,1,1,27238,1702.375
8.661188840866089,0,0,28911,1806.938
8.66518497467041,0,0,18941,1183.812
8.669183254241943,0,0,17676,1104.750
8.67318344116211,0,0,25425,1589.062
8.677183389663696,1,0,32767,2047.938
8.681195974349976,0,0,32767,2047.938
8.685194253921509,0,0,20013,1250.812
8.689226865768433,0,0,16744,1046.500
8.693202018737793,0,0,20839,1302.438
8.697196245193481,0,0,30883,1930.188
8.701196193695068,0,0,31483,1967.688
8.705193519592285,0,0,19602,1225.125
8.709187507629395,0,0,17104,1069.000
8.713198184967041,0,0,23332,1458.250
8.717193841934204,0,0,32767,2047.938
8.721197843551636,0,0,32163,2010.188
8.725193977355957,0,0,19605,1225.312
8.729194641113281,0,0,16525,1032.812
8.733199834823608,0,0,19391,1211.938
8.737192869186401,0,0,29065,1816.562
8.741197347640991,0,0,30197,1887.312
8.745194435119629,0,0,19223,1201.438
8.749195098876953,0,0,16753,1047.062
8.753196954727173,0,0,22028,1376.750
8.757194995880127,0,0,32309,2019.312
8.761198043823242,0,0,32156,2009.750
8.765193939208984,0,0,19689,1230.562
8.769195556640625,0,0,16555,1034.688
8.773219585418701,0,0,17272,1079.500
8.777198076248169,0,0,25254,1578.375
8.781200408935547,0,0,29890,1868.125
8.785197257995605,0,0,19780,1236.250
8.789196014404297,0,0,17512,1094.500
8.793231964111328,0,0,24412,1525.750
8.797194957733154,0,0,32767,2047.938
8.801202774047852,0,0,32767,2047.938
8.805195569992065,0,0,20693,1293.312
8.80919337272644,0,0,16958,1059.875
8.813195943832397,0,0,21202,1325.125
8.817180871963501,0,1,31357,1959.812
8.821197509765625,0,0,32767,2047.938
8.82519245147705,0,0,20299,1268.688
8.82919454574585,0,0,16704,1044.000
8.83319878578186,0,0,16871,1054.438
8.83719515800476,1,0,24043,1502.688
8.841197729110718,0,0,29244,1827.750
8.845194101333618,0,0,19615,1225.938
8.849197149276733,0,0,16664,1041.500
8.853199481964111,0,0,17960,1122.500
8.857192277908325,0,0,26612,1663.250
8.861195802688599,0,0,31632,1977.000
8.86519455909729,0,0,20442,1277.625
8.869192600250244,0,0,16905,1056.562
8.873195886611938,0,0,17156,1072.250
8.877193689346313,1,0,24478,1529.875
8.881192684173584,0,0,30997,1937.312
8.885179281234741,0,0,20808,1300.500
8.889178037643433,0,0,17071,1066.938
8.893215894699097,0,0,19164,1197.750
8.897196054458618,1,0,28581,1786.312
8.901198625564575,0,0,32767,2047.938
8.905191898345947,0,0,21526,1345.375
8.909191131591797,0,0,17233,1077.062
8.913187265396118,0,0,17415,1088.438
8.917181730270386,1,0,24909,1556.812
8.92119312286377,0,0,31367,1960.438
8.925195217132568,0,0,20930,1308.125
8.929195880889893,0,0,17174,1073.375
8.933199405670166,0,0,17451,1090.688
8.937192678451538,0,0,24932,1558.250
8.941195249557495,0,0,32045,2002.812
8.945194482803345,0,0,21568,1348.000
8.94919204711914,0,0,17370,1085.625
8.953193426132202,0,0,18269,1141.812
8.957197427749634,1,0,26789,1674.312
8.961200952529907,0,0,32767,2047.938
8.965193271636963,0,0,22603,1412.688
8.969193458557129,0,0,17609,1100.562
8.973196983337402,0,0,17694,1105.875
8.977195501327515,1,0,25292,1580.750
8.98119831085205,0,0,32767,2047.938
8.985193014144897,0,0,22454,1403.375
8.989193201065063,0,0,17616,1101.000
8.993233680725098,0,0,17543,1096.438
8.997195959091187,0,1,24756,1547.250
9.00119686126709,0,0,32565,2035.312
9.005204916000366,0,0,22267,1391.688
9.009192943572998,0,0,17626,1101.625
9.013197898864746,0,0,17365,1085.312
9.017194509506226,1,1,24054,1503.375
9.021194696426392,0,0,32742,2046.375
9.025192975997925,0,0,23201,1450.062
9.02919340133667,0,0,17869,1116.812
9.03319525718689,0,0,18311,1144.438
9.037193536758423,0,0,26579,1661.188
9.047708749771118,0,0,18014,1125.875
9.04922604560852,0,0,18014,1125.875
9.053198337554932,0,0,18382,1148.875
9.05719518661499,0,1,26708,1669.250
9.061197280883789,0,0,32767,2047.938
9.065196514129639,0,0,18032,1127.000
9.069190979003906,0,0,17090,1068.125
9.073195219039917,0,0,22217,1388.562
9.07719349861145,0,0,31319,1957.438
9.081199169158936,0,0,23440,1465.000
9.085191249847412,0,0,17989,1124.312
9.08919358253479,0,0,18125,1132.812
9.0931978225708,0,0,26017,1626.062
9.097198009490967,0,0,32767,2047.938
9.101170539855957,0,0,25167,1572.938
9.105155229568481,0,0,18356,1147.250
9.109153509140015,0,0,18343,1146.438
9.113157033920288,0,0,26429,1651.812
9.117155313491821,0,0,32767,2047.938
9.121154546737671,0,0,25962,1622.625
9.125153064727783,0,0,18511,1156.938
9.129155158996582,0,0,19264,1204.000
9.133157968521118,0,0,28351,1771.938
9.137151956558228,0,1,32767,2047.938
9.141154050827026,0,0,26028,1626.750
9.145154476165771,0,0,18475,1154.688
9.149153232574463,0,0,17098,1068.625
9.153153896331787,0,0,21583,1348.938
9.157152891159058,0,0,31127,1945.438
9.161152362823486,0,0,24577,1536.062
9.165141105651855,0,0,18231,1139.438
9.169140338897705,0,0,17200,1075.000
9.173153400421143,0,0,22309,1394.312
9.177155494689941,0,0,32024,2001.500
9.18114948272705,0,0,25393,1587.062
9.185141324996948,0,0,18462,1153.875
9.189140796661377,0,0,17484,1092.750
9.193158626556396,0,0,23405,1462.812
9.197170734405518,0,0,32767,2047.938
9.201194763183594,0,0,26930,1683.125
9.20517897605896,0,0,18820,1176.250
9.209177017211914,0,0,17279,1079.938
9.213196516036987,0,0,21468,1341.750
9.217193365097046,0,0,31314,1957.125
9.221197366714478,0,0,27084,1692.750
9.225192308425903,0,0,18926,1182.875
9.22918963432312,0,0,17646,1102.875
9.233193397521973,0,0,23479,1467.438
9.237191915512085,0,0,32767,2047.938
9.241188526153564,0,0,27407,1712.938
9.24517822265625,0,0,18995,1187.188
9.249176740646362,0,0,17321,1082.562
9.253193378448486,0,0,20914,1307.125
9.25719165802002,1,0,30660,1916.250
9.26119089126587,0,0,27632,1727.000
9.265190124511719,0,0,19134,1195.875
9.269189596176147,0,0,17517,1094.812
9.273193120956421,0,0,22177,1386.062
9.277191877365112,1,0,32193,2012.062
9.281198024749756,0,0,28379,1773.688
9.285190343856812,0,0,19315,1207.188
9.28919267654419,0,0,17426,1089.125
9.293195962905884,0,0,20370,1273.125
9.297203302383423,0,0,29934,1870.875
9.301160335540771,0,0,28249,1765.562
9.30515456199646,0,0,19387,1211.688
9.309153318405151,0,0,17510,1094.375
9.313453674316406,0,0,20813,1300.812
9.317355155944824,1,0,30535,1908.438
9.321202516555786,0,0,29166,1822.875
9.325163125991821,0,0,19678,1229.875
9.329143524169922,0,0,17679,1104.938
9.33320140838623,0,0,21778,1361.125
9.337342262268066,0,0,31766,1985.375
9.341256141662598,0,0,30597,1912.312
9.345157384872437,0,0,20078,1254.875
9.349203824996948,0,0,17693,1105.812
9.353168725967407,0,0,20725,1295.312
9.357172727584839,1,0,30410,1900.625
9.361152410507202,0,0,30298,1893.625
9.365141868591309,0,0,20063,1253.938
9.369141578674316,0,0,17712,1107.000
9.37315583229065,0,0,20702,1293.875
9.377160787582397,0,0,30365,1897.812
9.381150245666504,0,0,30125,1882.812
9.385141611099243,0,0,20039,1252.438
9.389140367507935,0,0,17753,1109.562
9.393158435821533,0,0,21069,1316.812
9.397151470184326,0,0,30867,1929.188
9.401155948638916,0,0,30757,1922.312
9.405149936676025,0,0,20236,1264.750
9.4091477394104,0,0,17769,1110.562
9.413153648376465,0,0,19880,1242.500
9.417151689529419,0,0,29099,1818.688
9.42115068435669,0,0,30018,1876.125
9.425150156021118,0,0,20128,1258.000
9.429149389266968,0,0,17788,1111.750
9.433154344558716,0,0,19864,1241.500
9.437150955200195,0,0,29045,1815.312
9.44115686416626,0,0,30839,1927.438
9.445149421691895,0,0,20485,1280.312
9.449150323867798,0,0,17896,1118.500
9.453153371810913,0,0,19155,1197.188
9.457148313522339,1,0,27675,1729.688
9.461153030395508,0,0,30555,1909.688
9.465151309967041,0,0,20567,1285.438
9.469151496887207,0,0,17996,1124.750
9.473152160644531,0,0,21021,1313.812
9.47714877128601,1,0,30753,1922.062
9.481160402297974,0,0,32694,2043.375
9.48514723777771,0,0,21140,1321.250
9.489147663116455,0,0,18095,1130.938
9.493153095245361,0,0,20400,1275.000
9.497148990631104,0,0,29822,1863.875
9.501193046569824,0,0,32319,2019.938
9.505186796188354,0,0,21079,1317.438
9.5091872215271,0,0,18083,1130.188
9.513188600540161,0,0,19810,1238.125
9.517200708389282,0,0,28847,1802.938
9.52118444442749,0,0,32670,2041.875
9.525173425674438,0,0,21441,1340.062
9.529171466827393,0,0,18177,1136.062
9.533191919326782,0,0,19748,1234.250
9.537187337875366,0,0,28705,1794.062
9.54119324684143,0,0,32767,2047.938
9.545188665390015,0,0,21900,1368.750
9.549185276031494,0,0,18317,1144.812
9.553187131881714,0,0,21192,1324.500
9.557186603546143,0,0,30974,1935.875
9.561196327209473,0,0,32767,2047.938
9.565185785293579,0,0,22385,1399.062
9.569185495376587,0,0,18361,1147.562
9.573189496994019,0,0,19683,1230.188
9.577187538146973,0,0,28543,1783.938
9.581188678741455,0,0,32767,2047.938
9.585182905197144,0,0,22274,1392.125
9.589183330535889,0,0,18341,1146.312
9.593189477920532,0,0,19201,1200.062
9.597188472747803,0,0,27583,1723.938
9.601191282272339,0,0,32767,2047.938
9.605184555053711,0,0,22571,1410.688
9.609184980392456,0,0,18419,1151.188
9.6131911277771,0,0,19150,1196.875
9.61718225479126,0,1,27426,1714.125
9.621185779571533,0,0,32767,2047.938
9.625185012817383,0,0,22619,1413.688
9.62918472290039,0,0,18447,1152.938
9.633186101913452,0,0,18571,1160.688
9.637181282043457,0,0,25913,1619.562
9.641191959381104,0,0,32767,2047.938
9.645184516906738,0,0,22698,1418.625
9.64918303489685,0,0,18501,1156.312
9.653186082839966,0,0,19005,1187.812
9.65718674659729,0,0,27011,1688.188
9.661178350448608,0,0,32767,2047.938
9.665169954299927,0,0,23425,1464.062
9.669172525405884,0,0,18668,1166.750
9.673188209533691,0,0,27221,1701.312
9.677186012268066,0,0,32767,2047.938
9.68118929862976,0,0,23677,1479.812
9.68518328666687,0,0,18727,1170.438
9.689184427261353,0,0,19000,1187.500
9.693178415298462,0,0,26890,1680.625
9.697168588638306,0,0,32767,2047.938
9.701187133789062,0,0,24118,1507.375
9.705187320709229,0,0,18824,1176.500
9.70918345451355,0,0,19117,1194.812
9.713181018829346,0,0,27150,1696.875
9.717183351516724,0,0,32767,2047.938
9.721190452575684,0,0,24638,1539.875
9.72518253326416,0,0,18927,1182.938
9.729181289672852,0,0,18349,1146.812
9.733186960220337,0,0,24733,1545.812
9.737183809280396,0,0,32767,2047.938
9.741183996200562,0,0,24199,1512.438
9.745180606842041,0,0,18866,1179.125
9.749181032180786,0,0,18715,1169.688
9.753186702728271,0,0,26005,1625.312
9.757184743881226,0,0,32767,2047.938
9.761185884475708,0,0,24847,1552.938
9.76518177986145,0,0,19013,1188.312
9.76918339729309,0,0,18895,1180.938
9.773189544677734,0,0,26451,1653.188
9.777186393737793,0,0,32767,2047.938
9.781184434890747,0,0,26226,1639.125
9.785178899765015,0,0,19292,1205.750
9.789181232452393,0,0,19442,1215.125
9.793184041976929,0,0,27735,1733.438
9.797181844711304,0,0,32767,2047.938
9.801206111907959,0,0,26945,1684.062
9.805184364318848,0,0,19405,1212.812
9.80918288230896,0,0,18466,1154.125
9.81318712234497,0,0,24863,1553.938
9.817180395126343,0,0,32767,2047.938
9.821183919906616,0,0,25762,1610.125
9.825181722640991,0,0,19170,1198.125
9.829182147979736,0,0,18884,1180.250
9.83318018913269,0,0,26440,1652.500
9.837167024612427,0,0,32767,2047.938
9.841182231903076,0,0,26900,1681.250
9.845181226730347,0,0,19400,1212.500
9.849178791046143,0,0,19052,1190.750
9.85318636894226,0,0,26825,1676.562
9.85718297958374,0,0,32767,2047.938
9.861185073852539,0,0,28518,1782.375
9.865180253982544,0,0,19722,1232.625
9.869180679321289,0,0,18912,1182.000
9.873183965682983,0,0,26293,1643.312
9.877182483673096,0,0,32767,2047.938
9.881185293197632,0,0,27682,1730.125
9.885183095932007,0,0,19510,1219.375
9.889180421829224,0,0,17859,1116.188
9.89318585395813,0,0,20572,1285.750
9.897178173065186,0,0,29753,1859.562
9.901215076446533,0,0,25386,1586.625
9.905183792114258,0,0,19111,1194.438
9.909180641174316,0,0,18375,1148.438
9.91317343711853,0,0,24723,1545.188
9.917168855667114,0,0,32767,2047.938
9.921172857284546,0,0,28355,1772.188
9.925167322158813,0,0,19765,1235.312
9.929165601730347,0,0,18097,1131.062
9.933186769485474,0,0,22159,1384.938
9.9371817111969,0,0,31946,1996.625
9.94118618965149,0,0,27391,1711.938
9.945178031921387,0,0,19601,1225.062
9.949179649353027,0,0,18080,1130.000
9.953182458877563,0,0,21936,1371.000
9.957181692123413,0,0,31732,1983.250
9.961184024810791,0,0,28195,1762.188
9.965179681777954,0,0,19839,1239.938
9.969187021255493,0,0,18190,1136.875
9.973185539245605,0,0,22217,1388.562
9.97717809677124,0,0,32092,2005.750
9.98118257522583,0,0,28455,1778.438
9.985180139541626,0,0,19930,1245.625
9.989179372787476,0,0,18162,1135.125
9.993178129196167,0,0,21052,1315.750
9.997179746627808,0,0,30580,1911.250
10.001177310943604,0,0,28980,1811.250
10.005201578140259,0,0,20152,1259.500
10.00916576385498,0,0,18298,1143.625
10.013298749923706,0,0,21934,1370.875
10.017207145690918,0,0,31767,1985.438
10.021199464797974,0,0,29959,1872.438
10.025187730789185,0,0,20403,1275.188
10.029183149337769,0,0,18307,1144.188
10.03317403793335,0,0,20257,1266.062
10.037167310714722,0,0,29266,1829.125
10.04118013381958,0,0,28593,1787.062
10.076048612594604,0,0,27975,1748.438
10.077362775802612,0,0,27975,1748.438
10.081204652786255,0,0,29860,1866.250
10.085180521011353,0,0,20753,1297.062
10.089181900024414,0,0,18597,1162.312
10.093185424804688,0,0,21789,1361.812
10.097177028656006,0,0,31514,1969.625
10.101182699203491,0,0,31422,1963.875
10.105198383331299,0,0,21054,1315.875
10.109143257141113,0,0,18631,1164.438
10.11314582824707,0,0,20694,1293.375
10.11714220046997,0,0,29851,1865.688
10.121144771575928,0,0,31682,1980.125
10.125139951705933,0,0,21308,1331.750
10.129140377044678,0,0,18733,1170.812
10.133140087127686,0,0,21801,1362.562
10.13714051246643,0,0,31528,1970.500
10.141143798828125,0,0,32767,2047.938
10.145140171051025,0,0,21897,1368.562
10.149140119552612,0,0,18806,1175.375
10.15313982963562,0,0,20540,1283.750
10.15714144706726,0,0,29550,1846.875
10.161139965057373,0,0,32515,2032.188
10.165130615234375,0,0,21687,1355.438
10.169127941131592,0,0,18843,1177.688
10.173143863677979,0,0,22411,1400.688
10.177142858505249,0,0,32346,2021.625
10.181145668029785,0,0,32767,2047.938
10.185139417648315,0,0,22538,1408.625
10.189138889312744,0,0,18994,1187.125
10.193140745162964,0,0,22557,1409.812
10.197139739990234,0,0,32525,2032.812
10.201136350631714,0,0,32767,2047.938
10.205138921737671,0,0,22540,1408.750
10.209169626235962,0,0,18907,1181.688
10.2131667137146,0,0,21868,1366.750
10.217166185379028,0,0,31656,1978.500
10.221174001693726,0,0,32767,2047.938
10.225176811218262,0,0,22447,1402.938
10.229175090789795,0,0,18818,1176.125
10.233179330825806,0,0,19933,1245.812
10.237176656723022,0,0,28516,1782.250
10.241179466247559,0,0,32767,2047.938
10.245172262191772,0,0,22920,1432.500
10.249174356460571,0,0,19018,1188.625
10.253180503845215,0,0,22697,1418.562
10.257174730300903,0,0,32767,2047.938
10.261176347732544,0,0,32767,2047.938
10.26517653465271,0,0,23298,1456.125
10.269172668457031,0,0,19012,1188.250
10.273174047470093,0,0,22195,1387.188
10.277174472808838,0,0,32767,2047.938
10.281177759170532,0,0,24233,1514.562
10.285179853439331,0,0,19158,1197.375
10.289174795150757,0,0,22298,1393.625
10.293179035186768,0,0,32251,2015.688
10.29717206954956,0,0,32767,2047.938
10.30117654800415,0,0,23588,1474.250
10.305176734924316,0,0,18899,1181.188
10.30918836593628,0,0,18867,1179.188
10.313446521759033,1,1,26082,1630.125
10.317376375198364,0,0,32767,2047.938
10.321667909622192,0,0,23980,1498.750
10.325183153152466,0,0,19046,1190.375
10.329163312911987,0,0,21785,1361.562
10.333171606063843,0,1,31675,1979.688
10.337165594100952,0,0,32767,2047.938
10.341165542602539,0,0,24664,1541.500
10.345404386520386,0,0,19134,1195.875
10.349406957626343,0,0,21476,1342.250
10.353209495544434,1,1,31208,1950.500
10.357186317443848,0,0,32767,2047.938
10.361255407333374,0,0,24430,1526.875
10.365175247192383,0,0,19016,1188.500
10.36916971206665,0,0,19535,1220.938
10.37317180633545,1,1,27856,1741.000
10.377219676971436,0,0,32767,2047.938
10.382421493530273,0,0,24377,1523.562
10.385380029678345,0,0,19010,1188.125
10.389192342758179,0,0,20048,1253.000
10.393189191818237,1,1,28932,1808.250
10.397177457809448,0,0,32767,2047.938
10.401172637939453,0,0,24480,1530.000
10.405161142349243,0,0,19025,1189.062
10.409257650375366,0,0,18759,1172.438
10.413145303726196,1,1,25807,1612.938
10.417129039764404,0,0,32767,2047.938
10.421142578125,0,0,24247,1515.438
10.425140380859375,0,0,19011,1188.188
10.429138898849487,0,0,18724,1170.250
10.433138370513916,1,1,25634,1602.125
10.437137842178345,0,0,32767,2047.938
10.441145658493042,0,0,24985,1561.562
10.445138931274414,0,0,19200,1200.000
10.449140310287476,0,0,19641,1227.562
10.453142881393433,1,1,28003,1750.188
10.457138061523438,0,0,32767,2047.938
10.461143970489502,0,0,25977,1623.562
10.46513819694519,0,0,19397,1212.312
10.469140768051147,0,0,18807,1175.438
10.473140001296997,1,1,25629,1601.812
10.47713851928711,0,0,32767,2047.938
10.481145858764648,0,0,26580,1661.250
10.48513913154602,0,0,19534,1220.875
10.489137887954712,0,0,19531,1220.688
10.493142366409302,1,1,27631,1726.938
10.497138738632202,0,0,32767,2047.938
10.501142024993896,0,0,29036,1814.750
10.505139350891113,0,0,20200,1262.500
10.509137153625488,0,0,22951,1434.438
10.513230562210083,1,1,32767,2047.938
10.517179727554321,0,0,32767,2047.938
10.521183490753174,0,0,28527,1782.938
10.525175094604492,0,0,19798,1237.375
10.529175519943237,0,0,18994,1187.125
10.533178329467773,1,1,26309,1644.312
10.537174224853516,0,0,32767,2047.938
10.54118037223816,0,0,27823,1738.938
10.545176267623901,0,0,19646,1227.875
10.54917597770691,0,0,19071,1191.938
10.553175926208496,1,0,26621,1663.812
10.55717396736145,0,0,32767,2047.938
10.561168432235718,0,0,28149,1759.312
10.56515908241272,0,0,19708,1231.750
10.569157361984253,0,0,18676,1167.250
10.573180913925171,1,0,25367,1585.438
10.577174425125122,0,0,32767,2047.938
10.581180334091187,0,0,28224,1764.000
10.585174322128296,0,0,19738,1233.625
10.589173078536987,0,0,18793,1174.562
10.59317684173584,1,0,25782,1611.375
10.597174167633057,0,0,32767,2047.938
10.601179838180542,0,0,30648,1915.500
10.60517406463623,0,0,20343,1271.438
10.609173774719238,0,0,20447,1277.938
10.613264322280884,1,1,29420,1838.750
10.617143630981445,0,0,32767,2047.938
10.6211416721344,0,0,32041,2002.562
10.625137329101562,0,0,20601,1287.562
10.629137516021729,0,0,18658,1166.125
10.633135080337524,0,1,24894,1555.875
10.637136459350586,0,0,32767,2047.938
10.641140460968018,0,0,32071,2004.438
10.64513611793518,0,0,20829,1301.812
10.649134874343872,0,0,21702,1356.375
10.653139114379883,1,1,31261,1953.812
10.657135725021362,0,0,32767,2047.938
10.661131620407104,0,0,31953,1997.062
10.665123224258423,0,0,20444,1277.750
10.669122457504272,0,0,18182,1136.375
10.673139810562134,1,1,23197,1449.812
10.677136421203613,0,0,32767,2047.938
10.681139945983887,0,0,29822,1863.875
10.685133218765259,0,0,19980,1248.750
10.689136505126953,0,0,17954,1122.125
10.693137884140015,1,1,21998,1374.875
10.697134494781494,0,0,31926,1995.375
10.701135396957397,0,0,30345,1896.562
10.705136060714722,0,0,20235,1264.688
10.70913577079773,0,0,18230,1139.375
10.713189125061035,1,1,23394,1462.125
10.717162132263184,0,0,32767,2047.938
10.72117567062378,0,0,32023,2001.438
10.72517204284668,0,0,20745,1296.562
10.729170083999634,0,0,18446,1152.875
10.733171701431274,1,1,23998,1499.875
10.737172603607178,0,0,32767,2047.938
10.74118185043335,0,0,31838,1989.875
10.745173454284668,0,0,20629,1289.312
10.749172449111938,0,0,18169,1135.562
10.753172159194946,1,1,22250,1390.625
10.75717282295227,0,0,32237,2014.812
10.76118016242981,0,0,31357,1959.812
10.765171527862549,0,0,20577,1286.062
10.769168853759766,0,0,18106,1131.625
10.773174047470093,1,1,21251,1328.188
10.777170181274414,0,0,30971,1935.688
10.781172752380371,0,0,32767,2047.938
10.785171270370483,0,0,22723,1420.188
10.789170026779175,0,0,21197,1324.812
10.793170928955078,1,0,29973,1873.312
10.797169923782349,0,0,32767,2047.938
10.801175832748413,0,0,32767,2047.938
10.805169820785522,0,0,22005,1375.312
10.809171915054321,0,0,18475,1154.688
10.813176155090332,1,1,23106,1444.125
10.817184925079346,0,0,32767,2047.938
10.82117486000061,0,0,32767,2047.938
10.825172424316406,0,0,21309,1331.812
10.829169273376465,0,0,18336,1146.000
10.833171129226685,1,1,23181,1448.812
10.837170600891113,0,0,32767,2047.938
10.84117579460144,0,0,32767,2047.938
10.84516978263855,0,0,21805,1362.812
10.849169492721558,0,0,18374,1148.375
10.853172302246094,1,1,22836,1427.250
10.85716962814331,0,0,32767,2047.938
10.86117434501648,0,0,32767,2047.938
10.865171670913696,0,0,21528,1345.500
10.86916971206665,0,0,18121,1132.562
10.873169422149658,1,1,19428,1214.250
10.877167463302612,0,0,28129,1758.062
10.881174087524414,0,0,21437,1339.812
10.885170221328735,0,0,18240,1140.000
10.889168739318848,0,0,21733,1358.312
10.893173933029175,1,1,31651,1978.188
10.897169351577759,0,0,32767,2047.938
10.901174068450928,0,0,21848,1365.500
10.905171871185303,0,0,18272,1142.000
10.90916895866394,0,0,20089,1255.562
10.913159370422363,1,1,29239,1827.438
10.917190551757812,0,0,32767,2047.938
10.921169757843018,0,0,21954,1372.125
10.92516803741455,0,0,18348,1146.750
10.929168462753296,0,0,20835,1302.188
10.933173418045044,1,1,30406,1900.375
10.937166929244995,0,0,32767,2047.938
10.94117283821106,0,0,22434,1402.125
10.945169448852539,0,0,18459,1153.688
10.94916820526123,0,0,20637,1289.812
10.953166484832764,1,1,30081,1880.062
10.957170248031616,0,0,32767,2047.938
10.961163759231567,0,0,22540,1408.750
10.965152740478516,0,0,18504,1156.500
10.969160795211792,0,0,20904,1306.500
10.973177194595337,1,1,30493,1905.812
10.977169752120972,0,0,32767,2047.938
10.981178283691406,0,0,22712,1419.500
10.985169887542725,0,0,18541,1158.812
10.989166736602783,0,0,20725,1295.312
10.993168354034424,1,1,30219,1888.688
10.997166872024536,0,0,32767,2047.938
11.001174211502075,0,0,23774,1485.875
11.005167007446289,0,0,18770,1173.125
11.009167194366455,0,0,21198,1324.875
11.013171195983887,1,1,30902,1931.375
11.01720404624939,0,0,32767,2047.938
11.0211763381958,0,0,24405,1525.312
11.025168657302856,0,0,18857,1178.562
11.029168367385864,0,0,20510,1281.875
11.033166885375977,1,1,29814,1863.375
11.037167072296143,0,0,32767,2047.938
11.041173696517944,0,0,24176,1511.000
11.045168161392212,0,0,19380,1211.250
11.049166440963745,0,0,25070,1566.875
11.053171157836914,1,1,32767,2047.938
11.057166814804077,0,0,32767,2047.938
11.061174631118774,0,0,24335,1520.938
11.065167903900146,0,0,18734,1170.875
11.069168329238892,0,0,18589,1161.812
11.079943180084229,0,0,32767,2047.938
11.0812406539917,0,0,23480,1467.500
11.085174083709717,0,0,18599,1162.438
11.089168071746826,0,0,18048,1128.000
11.093173027038574,1,1,23932,1495.750
11.097168207168579,0,0,32035,2002.188
11.101173400878906,0,0,22894,1430.875
11.105166673660278,0,0,18569,1160.562
11.109166145324707,0,0,18177,1136.062
11.11316967010498,1,1,24243,1515.188
11.117167711257935,0,0,32767,2047.938
11.121140956878662,0,0,24537,1533.562
11.125128507614136,0,0,18983,1186.438
11.129127264022827,0,0,19514,1219.625
11.133131265640259,1,1,27926,1745.375
11.137128114700317,0,0,32767,2047.938
11.141134023666382,0,0,25228,1576.750
11.145130157470703,0,0,19136,1196.000
11.149128437042236,0,0,18581,1161.312
11.153123140335083,1,1,25232,1577.000
11.157115936279297,0,0,32767,2047.938
11.1611168384552,0,0,26145,1634.062
11.165117263793945,0,0,19353,1209.562
11.169117212295532,0,0,19422,1213.875
11.173131942749023,1,1,27523,1720.188
11.17712950706482,0,0,32767,2047.938
11.181135654449463,0,0,25254,1578.375
11.185129165649414,0,0,19173,1198.312
11.189127683639526,0,0,18276,1142.250
11.193126916885376,1,1,23761,1485.062
11.197129964828491,0,0,32767,2047.938
11.20113492012024,0,0,25666,1604.125
11.205127477645874,0,0,19306,1206.625
11.209129810333252,0,0,18891,1180.688
11.213130235671997,1,1,26030,1626.875
11.217128038406372,0,0,32767,2047.938
11.22116732597351,0,0,26411,1650.688
11.225152969360352,0,0,19476,1217.250
11.22915005683899,0,0,18362,1147.625
11.233169078826904,1,1,23631,1476.938
11.237164974212646,0,0,32767,2047.938
11.241171598434448,0,0,26668,1666.750
11.245164394378662,0,0,19573,1223.312
11.249164581298828,0,0,18877,1179.812
11.253174543380737,1,1,25717,1607.312
11.257174015045166,0,0,32767,2047.938
11.261171102523804,0,0,27290,1705.625
11.265167951583862,0,0,19710,1231.875
11.269164085388184,0,0,18566,1160.375
11.273163080215454,1,1,24316,1519.750
11.277164459228516,0,0,32767,2047.938
11.281163215637207,0,0,27038,1689.875
11.285149097442627,0,0,19681,1230.062
11.289149284362793,0,0,18435,1152.188
11.293168306350708,1,1,23504,1469.000
11.297159671783447,0,0,32767,2047.938
11.301164388656616,0,0,27918,1744.875
11.305164098739624,0,0,19911,1244.438
11.309162139892578,0,0,18719,1169.938
11.313427925109863,1,1,24687,1542.938
11.317353963851929,0,0,32767,2047.938
11.321216344833374,0,0,29804,1862.750
11.3251314163208,0,0,20364,1272.750
11.329122066497803,0,0,19355,1209.688
11.333351135253906,1,1,26727,1670.438
11.337258577346802,0,0,32767,2047.938
11.341197967529297,0,0,30178,1886.125
11.345188856124878,0,0,20394,1274.625
11.349134683609009,0,0,18964,1185.250
11.353124856948853,1,1,25490,1593.125
11.35711407661438,0,0,32767,2047.938
11.361112833023071,0,0,30839,1927.438
11.365112066268921,0,0,20556,1284.750
11.369112491607666,0,0,18796,1174.750
11.373115301132202,1,1,24744,1546.500
11.377111673355103,0,0,32767,2047.938
11.381139993667603,0,0,30460,1903.750
11.385129928588867,0,0,20447,1277.938
11.389127016067505,0,0,18823,1176.438
11.393127202987671,1,1,25021,1563.812
11.397126197814941,0,0,32767,2047.938
11.401129961013794,0,0,32065,2004.062
11.405125379562378,0,0,20914,1307.125
11.409126043319702,0,0,19363,1210.188
11.413120985031128,1,1,26694,1668.375
11.417113780975342,0,0,32767,2047.938
11.421130418777466,0,0,32767,2047.938
11.425128698348999,0,0,21376,1336.000
11.429127216339111,0,0,18805,1175.312
11.433125019073486,1,1,24420,1526.250
11.437124013900757,0,0,32767,2047.938
11.4411301612854,0,0,32605,2037.812
11.44512414932251,0,0,21039,1314.938
11.449126243591309,0,0,19217,1201.062
11.453121185302734,1,1,26354,1647.125
11.457114696502686,0,0,32767,2047.938
11.461131811141968,0,0,32767,2047.938
11.465127944946289,0,0,21181,1323.812
11.469127655029297,0,0,18292,1143.250
11.473127365112305,1,1,20820,1301.250
11.477123260498047,0,0,30280,1892.500
11.48113203048706,0,0,30528,1908.000
11.485125541687012,0,0,20554,1284.625
11.489126443862915,0,0,18261,1141.312
11.493129968643188,1,1,31720,1982.500
11.497123003005981,0,0,31357,1959.812
11.501129627227783,0,0,20777,1298.562
11.505126714706421,0,0,18381,1148.812
11.50912594795227,0,0,22357,1397.312
11.513123273849487,1,1,32351,2021.938
11.517123937606812,0,0,32767,2047.938
11.521246910095215,0,0,21374,1335.875
11.525166273117065,0,0,18713,1169.562
11.529164791107178,0,0,23947,1496.688
11.533166885375977,1,1,32767,2047.938
11.537162065505981,0,0,32767,2047.938
11.541166067123413,0,0,21667,1354.188
11.545165538787842,0,0,18473,1154.562
11.549163341522217,0,0,21245,1327.812
11.553162097930908,1,1,30872,1929.500
11.557159423828125,0,0,32767,2047.938
11.561168432235718,0,0,21798,1362.375
11.565162181854248,0,0,18653,1165.812
11.569161415100098,0,0,23001,1437.562
11.57316517829895,1,1,32767,2047.938
11.577160358428955,0,0,32767,2047.938
11.581166744232178,0,0,21916,1369.750
11.585161924362183,0,0,18525,1157.812
11.589160680770874,0,0,21310,1331.875
11.59316086769104,1,1,30983,1936.438
11.597159147262573,0,0,32767,2047.938
11.601158857345581,0,0,21841,1365.062
11.605147123336792,0,0,18499,1156.188
11.609146356582642,0,0,20573,1285.812
11.613164901733398,1,1,29876,1867.250
11.61716079711914,0,0,32767,2047.938
11.621224164962769,0,0,22403,1400.188
11.62513017654419,0,0,18690,1168.125
11.629124402999878,0,0,21940,1371.250
11.633121728897095,1,1,31827,1989.188
11.637123584747314,0,0,32767,2047.938
11.6411292552948,0,0,22568,1410.500
11.64512300491333,0,0,18654,1165.875
11.649121522903442,0,0,19412,1213.250
11.653126001358032,1,1,27634,1727.125
11.657124042510986,0,0,32646,2040.375
11.661121845245361,0,0,21914,1369.625
11.66511082649231,0,0,18567,1160.438
11.669110774993896,0,0,18950,1184.375
11.673126459121704,1,1,26448,1653.000
11.677122354507446,0,0,31721,1982.562
11.681126356124878,0,0,21707,1356.688
11.685122013092041,0,0,18597,1162.312
11.689121961593628,0,0,18728,1170.500
11.693125486373901,1,1,25607,1600.438
11.69712209701538,0,0,32298,2018.625
11.701124906539917,0,0,22413,1400.812
11.70512342453003,0,0,18816,1176.000
11.709121942520142,0,0,19311,1206.938
11.71312165260315,1,1,27096,1693.500
11.71712040901184,0,0,32767,2047.938
11.721184968948364,0,0,22944,1434.000
11.725164651870728,0,0,18972,1185.750
11.729161262512207,0,0,20424,1276.500
11.733156442642212,1,1,29412,1838.250
11.737143516540527,0,0,32767,2047.938
11.741162061691284,0,0,23483,1467.688
11.745159387588501,0,0,19083,1192.688
11.749160528182983,0,0,18838,1177.375
11.753160238265991,1,1,25412,1588.250
11.757155656814575,0,0,32639,2039.938
11.761165618896484,0,0,22873,1429.562
11.765158653259277,0,0,19007,1187.938
11.769157886505127,0,0,18937,1183.562
11.77316164970398,1,1,25703,1606.438
11.777158737182617,0,0,32767,2047.938
11.781160593032837,0,0,24113,1507.062
11.78515887260437,0,0,19591,1224.438
11.78915786743164,0,0,24253,1515.812
11.793160200119019,1,1,32767,2047.938
11.797158241271973,0,0,32767,2047.938
11.801164627075195,0,0,26330,1645.625
11.805161714553833,0,0,19658,1228.625
11.809158086776733,0,0,19810,1238.125
11.813162088394165,1,1,27972,1748.250
11.817156314849854,0,0,32767,2047.938
11.821175336837769,0,0,25330,1583.125
11.825127840042114,0,0,19426,1214.125
11.829121828079224,0,0,19788,1236.750
11.833117961883545,1,1,28062,1753.875
11.837118864059448,0,0,32767,2047.938
11.841125011444092,0,0,25368,1585.500
11.845118999481201,0,0,19424,1214.000
11.849119663238525,0,0,19074,1192.125
11.853122472763062,1,1,26156,1634.750
11.8571195602417,0,0,32767,2047.938
11.861124753952026,0,0,24761,1547.562
11.865121603012085,0,0,19319,1207.438
11.869118452072144,0,0,19171,1198.188
11.873120307922363,1,1,26502,1656.375
11.877115488052368,0,0,32767,2047.938
11.881119966506958,0,0,25331,1583.188
11.885117292404175,0,0,19452,1215.750
11.889118194580078,0,0,18871,1179.438
11.893121004104614,1,1,25359,1584.938
11.897119522094727,0,0,32767,2047.938
11.901122570037842,0,0,25281,1580.062
11.905121088027954,0,0,19468,1216.750
11.909119129180908,0,0,18358,1147.375
11.913108825683594,1,1,21984,1374.000
11.91710638999939,0,0,30873,1929.562
11.921123027801514,0,0,24282,1517.625
11.925200462341309,0,0,19341,1208.812
11.929161787033081,0,0,18759,1172.438
11.933162927627563,0,0,24618,1538.625
11.937154769897461,0,0,32767,2047.938
11.941158771514893,0,0,26196,1637.250
11.945156812667847,0,0,19775,1235.938
11.949156522750854,0,0,18822,1176.375
11.953154802322388,1,0,24379,1523.688
11.95715594291687,0,0,32767,2047.938
11.961161613464355,0,0,27360,1710.000
11.965154647827148,0,0,20036,1252.250
11.969153642654419,0,0,18795,1174.688
11.973161935806274,0,0,23838,1489.875
11.977154731750488,0,0,32767,2047.938
11.981162309646606,0,0,27193,1699.562
11.98515772819519,0,0,20034,1252.125
11.989153385162354,0,0,19385,1211.562
11.993156433105469,0,1,26426,1651.625
11.997154474258423,0,0,32767,2047.938
12.001152753829956,0,0,27815,1738.438
12.005140781402588,0,0,20139,1258.688
12.00913953781128,0,0,18594,1162.125
12.013160943984985,0,0,21406,1337.875
12.017159938812256,0,0,30689,1918.062
12.021161556243896,0,0,26743,1671.438
12.025193452835083,0,0,19985,1249.062
12.029155254364014,0,0,18943,1183.938
12.033154487609863,0,0,24501,1531.312
12.037153482437134,0,0,32767,2047.938
12.041162252426147,0,0,28819,1801.188
12.045153856277466,0,0,20442,1277.625
12.049153566360474,0,0,18952,1184.500
12.053160190582275,0,0,24001,1500.062
12.057155132293701,0,0,32767,2047.938
12.061159610748291,0,0,29729,1858.062
12.065154552459717,0,0,20661,1291.312
12.069153785705566,0,0,18891,1180.688
12.073156833648682,0,1,23234,1452.125
12.083868980407715,0,0,20699,1293.688
12.08540415763855,0,0,19054,1190.875
12.0891695022583,0,0,19054,1190.875
12.093168020248413,0,1,32767,2047.938
12.097155570983887,0,0,30244,1890.250
12.101159572601318,0,0,20787,1299.188
12.105157375335693,0,0,18815,1175.938
12.109155416488647,0,0,22161,1385.062
12.113154411315918,0,1,31867,1991.688
12.117155313491821,0,0,30328,1895.500
12.12116003036499,0,0,20899,1306.188
12.125237226486206,0,0,18900,1181.250
12.12912106513977,0,0,22787,1424.188
12.133121967315674,0,1,32692,2043.250
12.137113809585571,0,0,31011,1938.188
12.141118049621582,0,0,21069,1316.812
12.145117282867432,0,0,18987,1186.688
12.149114847183228,0,0,23273,1454.562
12.153114080429077,1,1,32767,2047.938
12.157114267349243,0,0,32767,2047.938
12.161112546920776,0,0,21640,1352.500
12.165102243423462,0,0,19283,1205.188
12.169101476669312,0,0,24640,1540.000
12.17310881614685,1,0,32767,2047.938
12.17710280418396,0,0,32767,2047.938
12.181116342544556,0,0,21763,1360.188
12.185114860534668,0,0,19079,1192.438
12.189114332199097,0,0,23350,1459.375
12.193115472793579,1,1,32767,2047.938
12.197114706039429,0,0,32767,2047.938
12.201117277145386,0,0,21765,1360.312
12.205114126205444,0,0,18989,1186.812
12.209116220474243,0,0,22667,1416.688
12.213120460510254,1,1,32574,2035.875
12.217113018035889,0,0,32604,2037.750
12.221118211746216,0,0,21515,1344.688
12.225115299224854,0,0,18878,1179.875
12.229191780090332,0,0,21884,1367.750
12.233161449432373,1,1,31576,1973.500
12.237152099609375,0,0,32767,2047.938
12.241147994995117,0,0,21983,1373.938
12.245136976242065,0,0,19098,1193.625
12.249135971069336,0,0,23420,1463.750
12.253170728683472,1,1,32767,2047.938
12.257149457931519,0,0,32767,2047.938
12.261147499084473,0,0,22270,1391.875
12.265148162841797,0,0,18973,1185.812
12.269147396087646,0,0,20858,1303.625
12.273146867752075,1,1,29998,1874.875
12.277146100997925,0,0,32767,2047.938
12.281144142150879,0,0,22205,1387.812
12.285137176513672,0,0,18987,1186.688
12.289135217666626,0,0,21513,1344.562
12.293151378631592,1,1,31041,1940.062
12.29714846611023,0,0,32767,2047.938
12.301154613494873,0,0,22104,1381.500
12.305150032043457,0,0,18953,1184.562
12.309147119522095,0,0,19881,1242.562
12.313403606414795,1,1,28130,1758.125
12.317333698272705,0,0,31724,1982.750
12.321203470230103,0,0,21652,1353.250
12.325165033340454,0,0,18907,1181.688
12.329252243041992,0,0,19607,1225.438
12.333301305770874,1,1,27445,1715.312
12.337367296218872,0,0,32767,2047.938
12.341200351715088,0,0,22629,1414.312
12.345121145248413,0,0,19259,1203.688
12.349115371704102,0,0,23117,1444.812
12.35311484336853,1,1,32767,2047.938
12.357136249542236,0,0,32767,2047.938
12.361137390136719,0,0,23480,1467.500
12.36511754989624,0,0,19324,1207.750
12.36910891532898,0,0,22121,1382.562
12.373305082321167,1,1,31869,1991.812
12.377104759216309,0,0,32767,2047.938
12.38117003440857,0,0,23428,1464.250
12.38510251045227,0,0,19254,1203.375
12.389101266860962,0,0,21558,1347.375
12.393105745315552,1,1,31111,1944.438
12.39710021018982,0,0,32767,2047.938
12.401105403900146,0,0,23678,1479.875
12.40510106086731,0,0,19265,1204.062
12.409099817276001,0,0,20687,1292.938
12.413103342056274,1,1,29688,1855.500
12.417100191116333,0,0,32767,2047.938
12.421105861663818,0,0,24015,1500.938
12.425102233886719,0,0,19332,1208.250
12.429136276245117,0,0,21315,1332.188
12.433105230331421,1,1,30737,1921.062
12.437099695205688,0,0,32767,2047.938
12.44111156463623,0,0,24133,1508.312
12.445110082626343,0,0,19322,1207.625
12.44910979270935,0,0,19752,1234.500
12.453112363815308,1,1,27792,1737.000
12.457106590270996,0,0,32767,2047.938
12.461113691329956,0,0,23329,1458.062
12.465111494064331,0,0,19174,1198.375
12.469110250473022,0,0,18898,1181.125
12.473109006881714,1,1,25231,1576.938
12.477107524871826,0,0,32661,2041.312
12.48111605644226,0,0,23177,1448.562
12.485110521316528,0,0,19204,1200.250
12.489108324050903,0,0,19391,1211.938
12.493109941482544,1,1,26779,1673.688
12.497108221054077,0,0,32767,2047.938
12.501113891601562,0,0,24564,1535.250
12.505110263824463,0,0,19521,1220.062
12.509109020233154,0,0,19810,1238.125
12.513105869293213,1,1,27722,1732.625
12.517106533050537,0,0,32767,2047.938
12.521113872528076,0,0,24865,1554.062
12.525109767913818,0,0,19588,1224.250
12.529185056686401,0,0,19821,1238.812
12.533148527145386,1,1,27735,1733.438
12.537147760391235,0,0,32767,2047.938
12.54115343093872,0,0,25101,1568.812
12.545145750045776,0,0,19635,1227.188
12.549146175384521,0,0,19539,1221.188
12.55314326286316,1,1,26957,1684.812
12.557144165039062,0,0,32767,2047.938
12.561151027679443,0,0,24918,1557.375
12.565145015716553,0,0,19605,1225.312
12.569145441055298,0,0,18683,1167.688
12.573148250579834,1,1,23160,1447.500
12.577141046524048,0,0,32292,2018.250
12.581146717071533,0,0,25202,1575.125
12.585147619247437,0,0,19803,1237.688
12.58914589881897,0,0,22906,1431.625
12.593143463134766,1,1,32767,2047.938
12.597144365310669,0,0,32767,2047.938
12.601149559020996,0,0,28288,1768.000
