Timestamp,LO_plus,LO_minus,Raw_ADC,Voltage_mV
0.015620946884155273,1,1,22423,1401.438
0.016847848892211914,1,1,22423,1401.438
0.017986059188842773,1,1,23582,1473.875
0.02119612693786621,1,1,27024,1689.000
0.025175809860229492,1,1,27594,1724.625
0.029172420501708984,1,1,24806,1550.375
0.03317141532897949,1,1,21777,1361.062
0.03718209266662598,1,1,22687,1417.938
0.041173458099365234,1,1,26111,1631.938
0.04517245292663574,1,1,26872,1679.500
0.04917144775390625,1,1,24233,1514.562
0.053171396255493164,1,1,21213,1325.812
0.057173728942871094,1,1,22142,1383.875
0.061171770095825195,1,1,25650,1603.125
0.06517934799194336,1,1,26456,1653.500
0.06917834281921387,1,1,23817,1488.562
0.07317709922790527,1,1,20711,1294.438
0.07718205451965332,1,1,21401,1337.562
0.08117794990539551,1,1,24887,1555.438
0.08517718315124512,1,1,25867,1616.688
0.08917522430419922,1,1,23393,1462.062
0.09317684173583984,1,1,20337,1271.062
0.09717988967895508,1,1,20992,1312.000
0.10117888450622559,1,1,24465,1529.062
0.10517573356628418,1,1,25539,1596.188
0.10916996002197266,1,1,23154,1447.125
0.11317181587219238,1,1,20052,1253.250
0.11718630790710449,1,1,20513,1282.062
0.12117862701416016,1,1,23970,1498.125
0.1251811981201172,1,1,25138,1571.125
0.12917733192443848,1,1,22793,1424.562
0.13317537307739258,1,1,19666,1229.125
0.13718557357788086,1,1,20068,1254.250
0.14118266105651855,1,1,23602,1475.125
0.14517807960510254,1,1,24916,1557.250
0.14917421340942383,1,1,22652,1415.750
0.15317845344543457,1,1,19500,1218.750
0.15718293190002441,1,1,19753,1234.562
0.1611788272857666,1,1,23244,1452.750
0.1651768684387207,1,1,24730,1545.625
0.16917729377746582,1,1,22603,1412.688
0.1732795238494873,1,1,19453,1215.812
0.177290678024292,1,1,19641,1227.562
0.18120503425598145,1,1,23124,1445.250
0.18518710136413574,1,1,24567,1535.438
0.18916821479797363,1,1,22310,1394.375
0.19316935539245605,1,1,19065,1191.562
0.1971752643585205,1,1,19095,1193.438
0.2011704444885254,1,1,22631,1414.438
0.20518279075622559,1,1,24346,1521.625
0.20917987823486328,1,1,22353,1397.062
0.21317720413208008,1,1,19079,1192.438
0.2171766757965088,1,1,18936,1183.500
0.22117090225219727,1,1,22492,1405.750
0.225175142288208,1,1,24292,1518.250
0.22917604446411133,1,1,22283,1392.688
0.23317575454711914,1,1,19050,1190.625
0.23717761039733887,1,1,18826,1176.625
0.24119329452514648,1,1,22251,1390.688
0.24517488479614258,1,1,24145,1509.062
0.24917197227478027,1,1,22264,1391.500
0.25316834449768066,1,1,18993,1187.062
0.25718235969543457,1,1,18599,1162.438
0.26117873191833496,1,1,22035,1377.188
0.2651798725128174,1,1,24076,1504.750
0.26917457580566406,1,1,22287,1392.938
0.2731759548187256,1,1,18985,1186.562
0.2771785259246826,1,1,18458,1153.625
0.2811756134033203,1,1,21891,1368.188
0.2851746082305908,1,1,24049,1503.062
0.28917503356933594,1,1,22363,1397.688
0.29318928718566895,1,1,19069,1191.812
0.29720163345336914,1,1,18458,1153.625
0.3012351989746094,1,1,21741,1358.812
0.3052029609680176,1,1,23956,1497.250
0.3091855049133301,1,1,22433,1402.062
0.31317996978759766,1,1,19132,1195.750
0.31717658042907715,1,1,18359,1147.438
0.32117486000061035,1,1,21642,1352.625
0.32517218589782715,1,1,23980,1498.750
0.32917332649230957,1,1,22525,1407.812
0.3331732749938965,1,1,19211,1200.688
0.3371751308441162,1,1,18290,1143.125
0.3411717414855957,1,1,21504,1344.000
0.34517550468444824,1,1,23973,1498.312
0.34917378425598145,1,1,22610,1413.125
0.35317564010620117,1,1,19354,1209.625
0.3571767807006836,1,1,18410,1150.625
0.3611776828765869,1,1,21585,1349.062
0.3651740550994873,1,1,24058,1503.625
0.36917543411254883,1,1,22713,1419.562
0.37317395210266113,1,1,19414,1213.375
0.37717676162719727,1,1,18305,1144.062
0.38117456436157227,1,1,21459,1341.188
0.3851754665374756,1,1,24072,1504.500
0.3891737461090088,1,1,22827,1426.688
0.3931751251220703,1,1,19505,1219.062
0.39717674255371094,1,1,18291,1143.188
0.40117573738098145,1,1,21322,1332.625
0.40517139434814453,1,1,24009,1500.562
0.40917396545410156,1,1,22910,1431.875
0.41317129135131836,1,1,19688,1230.500
0.4171757698059082,1,1,18364,1147.750
0.4211738109588623,1,1,21340,1333.750
0.42517518997192383,1,1,24245,1515.312
0.4291715621948242,1,1,23320,1457.500
0.43317127227783203,1,1,20039,1252.438
0.43717455863952637,1,1,18507,1156.688
0.44117307662963867,1,1,21324,1332.750
0.44517016410827637,1,1,24248,1515.500
0.4491746425628662,1,1,23417,1463.562
0.4531722068786621,1,1,20165,1260.312
0.4571707248687744,1,1,18548,1159.250
0.4611661434173584,1,1,21339,1333.688
0.4651756286621094,1,1,24310,1519.375
0.4691743850708008,1,1,23584,1474.000
0.4731738567352295,1,1,20452,1278.250
0.4771757125854492,1,1,18745,1171.562
0.4811720848083496,1,1,21330,1333.125
0.485170841217041,1,1,24311,1519.438
0.48917412757873535,1,1,23632,1477.000
0.4931812286376953,1,1,20469,1279.312
0.4971737861633301,1,1,18664,1166.500
0.501166582107544,1,1,21274,1329.625
0.5051698684692383,1,1,24443,1527.688
0.5091652870178223,1,1,23936,1496.000
0.5132918357849121,1,1,20799,1299.938
0.5172488689422607,1,1,18891,1180.688
0.5212404727935791,1,1,21410,1338.125
0.5252363681793213,1,1,24632,1539.500
0.5292391777038574,1,1,24205,1512.812
0.5332343578338623,1,1,21023,1313.938
0.5372364521026611,1,1,18901,1181.312
0.5412359237670898,1,1,21281,1330.062
0.5452408790588379,1,1,24620,1538.750
0.5492575168609619,1,1,24369,1523.062
0.5532386302947998,1,1,21319,1332.438
0.5572400093078613,1,1,19165,1197.812
0.5612378120422363,1,1,21424,1339.000
0.565241813659668,1,1,24766,1547.875
0.5692377090454102,1,1,24640,1540.000
0.573237419128418,1,1,21609,1350.562
0.5772416591644287,1,1,19375,1210.938
0.581240177154541,1,1,21460,1341.250
0.585235595703125,1,1,24799,1549.938
0.5892248153686523,1,1,21839,1364.938
0.5932276248931885,1,1,19573,1223.312
0.597243070602417,1,1,21617,1351.062
0.6012375354766846,1,1,25022,1563.875
0.6052427291870117,1,1,25045,1565.312
0.6092369556427002,1,1,22077,1379.812
0.6133654117584229,1,1,19649,1228.062
0.6173102855682373,1,1,21555,1347.188
0.6213080883026123,1,1,25022,1563.875
0.6253106594085693,1,1,25172,1573.250
0.6293027400970459,1,1,22261,1391.312
0.6333010196685791,1,1,19811,1238.188
0.6373074054718018,1,1,21683,1355.188
0.6413066387176514,1,1,25219,1576.188
0.6453065872192383,1,1,25476,1592.250
0.6493031978607178,1,1,22566,1410.375
0.65329909324646,1,1,20024,1251.500
0.6573002338409424,1,1,21786,1361.625
0.6613037586212158,1,1,25376,1586.000
0.6653118133544922,1,1,25661,1603.812
0.6693003177642822,1,1,22753,1422.062
0.6733002662658691,1,1,20103,1256.438
0.6773066520690918,1,1,21634,1352.125
0.6813027858734131,1,1,25210,1575.625
0.6853055953979492,1,1,25752,1609.500
0.6892979145050049,1,1,23015,1438.438
0.6932978630065918,1,1,20286,1267.875
0.697303295135498,1,1,21713,1357.062
0.701303243637085,1,1,25322,1582.625
0.7053015232086182,1,1,25934,1620.875
0.7092990875244141,1,1,23243,1452.688
0.7133944034576416,1,1,20458,1278.625
0.7172765731811523,1,1,21736,1358.500
0.7212646007537842,1,1,25371,1585.688
0.7252681255340576,1,1,26087,1630.438
0.7292740345001221,1,1,23459,1466.188
0.7332625389099121,1,1,20665,1291.562
0.7372643947601318,1,1,21865,1366.562
0.7412641048431396,1,1,25529,1595.562
0.7452642917633057,1,1,26318,1644.875
0.749269962310791,1,1,23705,1481.562
0.7532520294189453,1,1,20805,1300.312
0.7572646141052246,1,1,21909,1369.312
0.7612636089324951,1,1,25599,1599.938
0.7652654647827148,1,1,26526,1657.875
0.7692623138427734,1,1,24009,1500.562
0.7732608318328857,1,1,21083,1317.688
0.7772660255432129,1,1,22045,1377.812
0.781264066696167,1,1,25666,1604.125
0.7852687835693359,1,1,26670,1666.875
0.7892608642578125,1,1,24249,1515.562
0.7932596206665039,1,1,21245,1327.812
0.7972664833068848,1,1,21927,1370.438
0.8012635707855225,1,1,25537,1596.062
0.8052661418914795,1,1,26745,1671.562
0.8092613220214844,1,1,24398,1524.875
0.8133232593536377,1,1,21424,1339.000
0.817310094833374,1,1,22112,1382.000
0.821300745010376,1,1,25797,1612.312
0.8253059387207031,1,1,27024,1689.000
0.8292984962463379,1,1,24613,1538.312
0.8333001136779785,1,1,21539,1346.188
0.8373041152954102,1,1,22070,1379.375
0.841299295425415,1,1,25730,1608.125
0.8452999591827393,1,1,27135,1695.938
0.8492982387542725,1,1,24943,1558.938
0.8532974720001221,1,1,21931,1370.688
0.8573040962219238,1,1,22356,1397.250
0.8612990379333496,1,1,25968,1623.000
0.8653044700622559,1,1,27397,1712.312
0.8692960739135742,1,1,25203,1575.188
0.8732984066009521,1,1,22061,1378.812
0.877302885055542,1,1,22292,1393.250
0.8812978267669678,1,1,25832,1614.500
0.8853030204772949,1,1,27421,1713.812
0.8893015384674072,1,1,25392,1587.000
0.8932976722717285,1,1,22249,1390.562
0.8975446224212646,1,1,22369,1398.062
0.9016406536102295,1,1,25959,1622.438
0.9054670333862305,1,1,27598,1724.875
0.9093375205993652,1,1,25519,1594.938
0.9133052825927734,1,1,22309,1394.312
0.9172713756561279,1,1,22336,1396.000
0.9212632179260254,1,1,25955,1622.188
0.9252645969390869,1,1,27757,1734.812
0.9292638301849365,1,1,25779,1611.188
0.9332597255706787,1,1,22537,1408.562
0.9372682571411133,1,1,22438,1402.375
0.941265344619751,1,1,26002,1625.125
0.9452669620513916,1,1,27874,1742.125
0.9492595195770264,1,1,26012,1625.750
0.9532628059387207,1,1,22809,1425.562
0.9572715759277344,1,1,22573,1410.812
0.9612665176391602,1,1,26041,1627.562
0.9652595520019531,1,1,28010,1750.625
0.9692599773406982,1,1,26261,1641.312
0.9732604026794434,1,1,23074,1442.125
0.9772651195526123,1,1,22724,1420.250
0.9812583923339844,1,1,26086,1630.375
0.9852604866027832,1,1,28075,1754.688
0.9892594814300537,1,1,26355,1647.188
0.9932572841644287,1,1,23138,1446.125
0.9972577095031738,1,1,22608,1413.000
1.0012791156768799,1,1,26004,1625.250
1.0052597522735596,1,1,28169,1760.562
1.015190839767456,1,1,22672,1417.000
1.017282247543335,1,1,22672,1417.000
1.0212531089782715,1,1,25983,1623.938
1.0252506732940674,1,1,28333,1770.812
1.029247760772705,1,1,26917,1682.312
1.0332465171813965,1,1,23649,1478.062
1.0372545719146729,1,1,22808,1425.500
1.0412757396697998,1,1,26047,1627.938
1.0452659130096436,1,1,28418,1776.125
1.0492639541625977,1,1,27012,1688.250
1.0532598495483398,1,1,23768,1485.500
1.057267427444458,1,1,22819,1426.188
1.06126070022583,1,1,25982,1623.875
1.0652680397033691,1,1,28445,1777.812
1.069260597229004,1,1,27166,1697.875
1.073261022567749,1,1,23920,1495.000
1.0772645473480225,1,1,22890,1430.625
1.0812616348266602,1,1,26029,1626.812
1.085259199142456,1,1,28639,1789.938
1.0892601013183594,1,1,27410,1713.125
1.0932598114013672,1,1,24082,1505.125
1.0972638130187988,1,1,22861,1428.812
1.1012609004974365,1,1,25872,1617.000
1.1052663326263428,1,1,28536,1783.500
1.1092584133148193,1,1,27526,1720.375
1.1132588386535645,1,1,24383,1523.938
1.117380142211914,1,1,23093,1443.312
1.1213042736053467,1,1,25964,1622.750
1.1253013610839844,1,1,28643,1790.188
1.1293013095855713,1,1,27619,1726.188
1.1332952976226807,1,1,24428,1526.750
1.1373038291931152,1,1,23070,1441.875
1.1412971019744873,1,1,25980,1623.750
1.1453087329864502,1,1,28789,1799.312
1.1492948532104492,1,1,27803,1737.688
1.1532952785491943,1,1,24571,1535.688
1.1572978496551514,1,1,23087,1442.938
1.16129732131958,1,1,25967,1622.938
1.1653010845184326,1,1,28871,1804.438
1.1692969799041748,1,1,28011,1750.688
1.1732935905456543,1,1,24819,1551.188
1.177297830581665,1,1,23211,1450.688
1.1812968254089355,1,1,25943,1621.438
1.1853022575378418,1,1,28906,1806.625
1.189293622970581,1,1,24853,1553.312
1.193295955657959,1,1,23072,1442.000
1.1972990036010742,1,1,25842,1615.125
1.2012982368469238,1,1,28963,1810.188
1.205301284790039,1,1,28307,1769.188
1.2092962265014648,1,1,25116,1569.750
1.213294267654419,1,1,23245,1452.812
1.2172927856445312,1,1,25829,1614.312
1.221264123916626,1,1,28965,1810.312
1.225266933441162,1,1,28473,1779.562
1.2292568683624268,1,1,25324,1582.750
1.2332582473754883,1,1,23334,1458.375
1.2372517585754395,1,1,25771,1610.688
1.2412464618682861,1,1,28901,1806.312
1.2452590465545654,1,1,28451,1778.188
1.2492554187774658,1,1,25368,1585.500
1.253253698348999,1,1,23322,1457.625
1.2572615146636963,1,1,25637,1602.312
1.2612576484680176,1,1,28853,1803.312
1.265265703201294,1,1,28505,1781.562
1.2692546844482422,1,1,25401,1587.562
1.2732584476470947,1,1,23253,1453.312
1.2772634029388428,1,1,25525,1595.312
1.2812566757202148,1,1,28849,1803.062
1.2852609157562256,1,1,28648,1790.500
1.2892584800720215,1,1,25635,1602.188
1.293257713317871,1,1,23441,1465.062
1.297257661819458,1,1,25623,1601.438
1.3012690544128418,1,1,28926,1807.875
1.3052661418914795,1,1,28756,1797.250
1.3092725276947021,1,1,25744,1609.000
1.3132789134979248,1,1,23469,1466.812
1.317263126373291,1,1,25553,1597.062
1.3212895393371582,1,1,28973,1810.812
1.3252947330474854,1,1,28978,1811.125
1.3294792175292969,1,1,26060,1628.750
1.3335509300231934,1,1,23629,1476.812
1.3373527526855469,1,1,25516,1594.750
1.3413727283477783,1,1,28921,1807.562
1.345395803451538,1,1,29013,1813.312
1.3493099212646484,1,1,26154,1634.625
1.3532984256744385,1,1,23674,1479.625
1.3573124408721924,1,1,25380,1586.250
1.3613073825836182,1,1,28770,1798.125
1.3652970790863037,1,1,28943,1808.938
1.3692951202392578,1,1,26183,1636.438
1.3732905387878418,1,1,23713,1482.062
1.377303123474121,1,1,25422,1588.875
1.381291151046753,1,1,28905,1806.562
1.3852934837341309,1,1,29185,1824.062
1.3892889022827148,1,1,26400,1650.000
1.3932902812957764,1,1,23740,1483.750
1.3972978591918945,1,1,25232,1577.000
1.4012925624847412,1,1,28751,1796.938
1.4052953720092773,1,1,29236,1827.250
1.4092907905578613,1,1,26551,1659.438
1.4132936000823975,1,1,23860,1491.250
1.417292594909668,1,1,25280,1580.000
1.4214138984680176,1,1,28854,1803.375
1.4252700805664062,1,1,29388,1836.750
1.429253339767456,1,1,26697,1668.562
1.433258295059204,1,1,23921,1495.062
1.4372620582580566,1,1,25242,1577.625
1.4412567615509033,1,1,28851,1803.188
1.4452581405639648,1,1,29475,1842.188
1.44925856590271,1,1,26792,1674.500
1.453251600265503,1,1,23928,1495.500
1.4572577476501465,1,1,25043,1565.188
1.461254358291626,1,1,28642,1790.125
1.4652583599090576,1,1,29443,1840.188
1.4692518711090088,1,1,26947,1684.188
1.4732518196105957,1,1,24156,1509.750
1.4772534370422363,1,1,25203,1575.188
1.4812421798706055,1,1,28791,1799.438
1.4852540493011475,1,1,29607,1850.438
1.4892535209655762,1,1,27123,1695.188
1.4932506084442139,1,1,24175,1510.938
1.4972546100616455,1,1,25005,1562.812
1.5012505054473877,1,1,28602,1787.625
1.5052504539489746,1,1,29555,1847.188
1.5092518329620361,1,1,27090,1693.125
1.5132524967193604,1,1,24123,1507.688
1.51725435256958,1,1,24891,1555.688
1.5213141441345215,1,1,28532,1783.250
1.5252916812896729,1,1,29652,1853.250
1.5292956829071045,1,1,27330,1708.125
1.5332880020141602,1,1,24303,1518.938
1.5372929573059082,1,1,24942,1558.875
1.5412850379943848,1,1,28581,1786.312
1.545283555984497,1,1,29725,1857.812
1.5493783950805664,1,1,27325,1707.812
1.5532824993133545,1,1,24212,1513.250
1.5572972297668457,1,1,24715,1544.688
1.5612962245941162,1,1,28384,1774.000
1.565298318862915,1,1,29785,1861.562
1.56929349899292,1,1,27559,1722.438
1.573288917541504,1,1,24397,1524.812
1.5772895812988281,1,1,24705,1544.062
1.5812911987304688,1,1,28250,1765.625
1.585296869277954,1,1,29696,1856.000
1.5892879962921143,1,1,27579,1723.688
1.5932879447937012,1,1,24564,1535.250
1.5972943305969238,1,1,24794,1549.625
1.601290225982666,1,1,28320,1770.000
1.6052942276000977,1,1,29864,1866.500
1.6092889308929443,1,1,27753,1734.562
1.613288402557373,1,1,24615,1538.438
1.6172981262207031,1,1,24687,1542.938
1.6212944984436035,1,1,28182,1761.375
1.62526535987854,1,1,29803,1862.688
1.6292529106140137,1,1,27787,1736.688
1.6332507133483887,1,1,24623,1538.938
1.6372592449188232,1,1,24575,1535.938
1.6412591934204102,1,1,28043,1752.688
1.6452560424804688,1,1,29755,1859.688
1.6492509841918945,1,1,27780,1736.250
1.6532502174377441,1,1,24657,1541.062
1.6572544574737549,1,1,24531,1533.188
1.6612536907196045,1,1,28009,1750.562
1.6652617454528809,1,1,29870,1866.875
1.669252634048462,1,1,27955,1747.188
1.6732513904571533,1,1,24714,1544.625
1.6772558689117432,1,1,24433,1527.062
1.681253433227539,1,1,27872,1742.000
1.685255765914917,1,1,29837,1864.812
1.6892492771148682,1,1,28021,1751.312
1.6932504177093506,1,1,24787,1549.188
1.6972556114196777,1,1,24424,1526.500
1.7012512683868408,1,1,27872,1742.000
1.7052562236785889,1,1,29961,1872.562
1.7092492580413818,1,1,28201,1762.562
1.7132518291473389,1,1,24900,1556.250
1.7172532081604004,1,1,24355,1522.188
1.7213153839111328,1,1,27731,1733.188
1.725299596786499,1,1,29926,1870.375
1.729290246963501,1,1,28288,1768.000
1.733285665512085,1,1,24992,1562.000
1.737292766571045,1,1,24283,1517.688
1.7412893772125244,1,1,27596,1724.750
1.7452867031097412,1,1,29864,1866.500
1.7492737770080566,1,1,28293,1768.312
1.7532739639282227,1,1,24936,1558.500
1.7572906017303467,1,1,24049,1503.062
1.7612926959991455,1,1,27332,1708.250
1.765293836593628,1,1,29795,1862.188
1.7692899703979492,1,1,28410,1775.625
1.7732899188995361,1,1,25177,1573.562
1.7772884368896484,1,1,24207,1512.938
1.7812883853912354,1,1,27365,1710.312
1.785290002822876,1,1,29782,1861.375
1.7892699241638184,1,1,28389,1774.312
1.7932705879211426,1,1,25128,1570.500
1.7972922325134277,1,1,27210,1700.625
1.80129075050354,1,1,29758,1859.875
1.8052904605865479,1,1,28483,1780.188
1.8092842102050781,1,1,25194,1574.625
1.8132834434509277,1,1,23977,1498.562
1.8172833919525146,1,1,27032,1689.500
1.8212864398956299,1,1,29673,1854.562
1.8252959251403809,1,1,28498,1781.125
1.829254388809204,1,1,25210,1575.625
1.8332486152648926,1,1,23881,1492.562
1.8372547626495361,1,1,26868,1679.250
1.84124755859375,1,1,29632,1852.000
1.8452520370483398,1,1,28548,1784.250
1.8492472171783447,1,1,25281,1580.062
1.8532466888427734,1,1,23862,1491.375
1.8572492599487305,1,1,26769,1673.062
1.8612496852874756,1,1,29639,1852.438
1.8652472496032715,1,1,28796,1799.750
1.8692481517791748,1,1,25629,1601.812
1.87324857711792,1,1,24069,1504.312
1.8772492408752441,1,1,26828,1676.750
1.8812460899353027,1,1,29700,1856.250
1.8852512836456299,1,1,28871,1804.438
1.8892483711242676,1,1,25695,1605.938
1.8932454586029053,1,1,23998,1499.875
1.8975110054016113,1,1,26659,1666.188
1.9015634059906006,1,1,29599,1849.938
1.90535306930542,1,1,28834,1802.125
1.909278392791748,1,1,25645,1602.812
1.913252830505371,1,1,23786,1486.625
1.917253017425537,1,1,26375,1648.438
1.9212510585784912,1,1,29500,1843.750
1.9252569675445557,1,1,28891,1805.688
1.9292938709259033,1,1,25728,1608.000
1.9332852363586426,1,1,23844,1490.250
1.9372942447662354,1,1,26356,1647.250
1.9412920475006104,1,1,29564,1847.750
1.9452881813049316,1,1,29135,1820.938
1.9492700099945068,1,1,26018,1626.125
1.9532735347747803,1,1,23968,1498.000
1.9576654434204102,1,1,26286,1642.875
1.9615097045898438,1,1,29402,1837.625
1.9655780792236328,1,1,29027,1814.188
1.9695184230804443,1,1,26000,1625.000
1.9733061790466309,1,1,23914,1494.625
1.9773015975952148,1,1,26189,1636.812
1.9812908172607422,1,1,29488,1843.000
1.9852924346923828,1,1,29244,1827.750
1.9892702102661133,1,1,26157,1634.812
1.993271827697754,1,1,23910,1494.375
1.9972872734069824,1,1,26001,1625.062
2.001274347305298,1,1,29235,1827.188
2.005296230316162,1,1,29071,1816.938
2.009296178817749,1,1,26133,1633.312
2.0204434394836426,1,1,29433,1839.562
2.021764039993286,1,1,29433,1839.562
2.0254127979278564,1,1,29268,1829.250
2.029282331466675,1,1,26187,1636.688
2.033254384994507,1,1,23724,1482.750
2.0372650623321533,1,1,25673,1604.562
2.0412518978118896,1,1,29153,1822.062
2.0452561378479004,1,1,29281,1830.062
2.0492489337921143,1,1,26382,1648.875
2.053248882293701,1,1,23945,1496.562
2.057250499725342,1,1,25730,1608.125
2.0612480640411377,1,1,29148,1821.750
2.0652544498443604,1,1,29277,1829.812
2.0692458152770996,1,1,26353,1647.062
2.073244571685791,1,1,23818,1488.625
2.077251434326172,1,1,25519,1594.938
2.0812509059906006,1,1,28995,1812.188
2.0852558612823486,1,1,29230,1826.875
2.089247703552246,1,1,26377,1648.562
2.0932443141937256,1,1,23806,1487.875
2.0972511768341064,1,1,25453,1590.812
2.101245164871216,1,1,28977,1811.062
2.105250835418701,1,1,29371,1835.688
2.1092448234558105,1,1,26543,1658.938
2.1132495403289795,1,1,23870,1491.875
2.1172502040863037,1,1,25374,1585.875
2.1212446689605713,1,1,28917,1807.312
2.1252574920654297,1,1,29355,1834.688
2.1292905807495117,1,1,26575,1660.938
2.1332852840423584,1,1,23836,1489.750
2.137315273284912,1,1,25125,1570.312
2.141284465789795,1,1,28625,1789.062
2.145291328430176,1,1,29244,1827.750
2.149284601211548,1,1,26629,1664.312
2.1532866954803467,1,1,23918,1494.875
2.1572887897491455,1,1,25119,1569.938
2.1612846851348877,1,1,28593,1787.062
2.165290355682373,1,1,29263,1828.938
2.169283866882324,1,1,26676,1667.250
2.173283815383911,1,1,23877,1492.312
2.177283525466919,1,1,24956,1559.750
2.1812853813171387,1,1,28532,1783.250
2.185293197631836,1,1,29330,1833.125
2.189281940460205,1,1,26723,1670.188
2.193283796310425,1,1,23883,1492.688
2.1972904205322266,1,1,24878,1554.875
2.201284408569336,1,1,28492,1780.750
2.205291271209717,1,1,29384,1836.500
2.2092835903167725,1,1,26862,1678.875
2.213280439376831,1,1,23932,1495.750
2.217283248901367,1,1,24772,1548.250
2.2212812900543213,1,1,28343,1771.438
2.2253615856170654,1,1,29354,1834.625
2.229238510131836,1,1,26939,1683.688
2.2332334518432617,1,1,24020,1501.250
2.2372519969940186,1,1,24703,1543.938
2.2412474155426025,1,1,28210,1763.125
2.245246171951294,1,1,29354,1834.625
2.2492358684539795,1,1,27051,1690.688
2.2532315254211426,1,1,24084,1505.250
2.257246732711792,1,1,24621,1538.812
2.2612433433532715,1,1,28172,1760.750
2.2652504444122314,1,1,29488,1843.000
2.2692434787750244,1,1,27242,1702.625
2.2732417583465576,1,1,24215,1513.438
2.277249336242676,1,1,24653,1540.812
2.2812445163726807,1,1,28188,1761.750
2.285245656967163,1,1,29481,1842.562
2.2892441749572754,1,1,27216,1701.000
2.2932443618774414,1,1,24116,1507.250
2.2972452640533447,1,1,24401,1525.062
2.301243543624878,1,1,27953,1747.062
2.305250644683838,1,1,29471,1841.938
2.3092434406280518,1,1,27352,1709.500
2.3132734298706055,1,1,24266,1516.625
2.317251682281494,1,1,24406,1525.375
2.321237325668335,1,1,27839,1739.938
2.3253426551818848,1,1,29389,1836.812
2.329364776611328,1,1,27293,1705.812
2.333275556564331,1,1,24173,1510.812
2.338695526123047,1,1,27648,1728.000
2.3414459228515625,1,1,27648,1728.000
2.3453216552734375,1,1,29325,1832.812
2.349363088607788,1,1,27337,1708.562
2.353327989578247,1,1,24221,1513.812
2.3573012351989746,1,1,24176,1511.000
2.3612875938415527,1,1,27625,1726.562
2.365286111831665,1,1,29384,1836.500
2.369284152984619,1,1,27474,1717.125
2.3732805252075195,1,1,24304,1519.000
2.377288341522217,1,1,24077,1504.812
2.381279945373535,1,1,27516,1719.750
2.3852829933166504,1,1,29406,1837.875
2.3892765045166016,1,1,27561,1722.562
2.3932769298553467,1,1,24331,1520.688
2.3972830772399902,1,1,27427,1714.188
2.4012813568115234,1,1,29454,1840.875
2.4052839279174805,1,1,27695,1730.938
2.4092857837677,1,1,24468,1529.250
2.4132773876190186,1,1,23984,1499.000
2.4172751903533936,1,1,27308,1706.750
2.4212770462036133,1,1,29383,1836.438
2.4252877235412598,1,1,27729,1733.062
2.4293763637542725,1,1,24493,1530.812
2.4332499504089355,1,1,23849,1490.562
2.4372382164001465,1,1,27066,1691.625
2.4412434101104736,1,1,29192,1824.500
2.4452500343322754,1,1,27666,1729.125
2.4492406845092773,1,1,24503,1531.438
2.4532415866851807,1,1,23821,1488.812
2.457240104675293,1,1,27106,1694.125
2.461240291595459,1,1,29357,1834.812
2.465245246887207,1,1,27843,1740.188
2.469238519668579,1,1,24624,1539.000
2.4732425212860107,1,1,23727,1482.938
2.4772377014160156,1,1,26932,1683.250
2.4812369346618652,1,1,29370,1835.625
2.485245704650879,1,1,27980,1748.750
2.4892406463623047,1,1,24707,1544.188
2.493236541748047,1,1,23700,1481.250
2.4972281455993652,1,1,26871,1679.438
2.5012292861938477,1,1,29359,1834.938
2.5052430629730225,1,1,28022,1751.375
2.5092408657073975,1,1,24772,1548.250
2.5132391452789307,1,1,23727,1482.938
2.5172388553619385,1,1,26855,1678.438
2.5212326049804688,1,1,29387,1836.688
2.5252416133880615,1,1,28129,1758.062
2.529238700866699,1,1,24825,1551.562
2.533334732055664,1,1,23514,1469.625
2.5372774600982666,1,1,26497,1656.062
2.5412745475769043,1,1,29193,1824.562
2.5452818870544434,1,1,28143,1758.938
2.549276113510132,1,1,24897,1556.062
2.5532760620117188,1,1,23491,1468.188
2.5572774410247803,1,1,26379,1648.688
2.5612778663635254,1,1,29117,1819.812
2.565279483795166,1,1,28101,1756.312
2.5692765712738037,1,1,24841,1552.562
2.573275089263916,1,1,23385,1461.562
2.5772793292999268,1,1,26244,1640.250
2.581273317337036,1,1,29106,1819.125
2.585278272628784,1,1,28247,1765.438
2.5892605781555176,1,1,25005,1562.812
2.5932631492614746,1,1,23377,1461.062
2.5972843170166016,1,1,26034,1627.125
2.6012723445892334,1,1,28930,1808.125
2.605280876159668,1,1,28182,1761.375
2.6092782020568848,1,1,25058,1566.125
2.613276481628418,1,1,23413,1463.312
2.6172726154327393,1,1,26067,1629.188
2.6212716102600098,1,1,29073,1817.062
2.6252849102020264,1,1,28415,1775.938
2.6292741298675537,1,1,25227,1576.688
2.633352756500244,1,1,23352,1459.500
2.6372575759887695,1,1,25904,1619.000
2.641246795654297,1,1,29016,1813.500
2.645247220993042,1,1,28448,1778.000
2.649242401123047,1,1,25292,1580.750
2.6532371044158936,1,1,23325,1457.812
2.6572349071502686,1,1,25771,1610.688
2.6612391471862793,1,1,28859,1803.688
2.665245771408081,1,1,28321,1770.062
2.6692259311676025,1,1,25282,1580.125
2.673224925994873,1,1,23399,1462.438
2.677241325378418,1,1,25798,1612.375
2.681241273880005,1,1,28948,1809.250
2.685245990753174,1,1,28519,1782.438
2.6892387866973877,1,1,25451,1590.688
2.69323992729187,1,1,23371,1460.688
2.6972382068634033,1,1,25594,1599.625
2.7012364864349365,1,1,28823,1801.438
2.705244779586792,1,1,28575,1785.938
2.7092373371124268,1,1,25525,1595.312
2.7132396697998047,1,1,23321,1457.562
2.7172372341156006,1,1,25481,1592.562
2.7212393283843994,1,1,28787,1799.188
2.725245952606201,1,1,28615,1788.438
2.7292375564575195,1,1,25638,1602.375
2.733250617980957,1,1,23398,1462.375
2.7372806072235107,1,1,25449,1590.562
2.7412796020507812,1,1,28798,1799.875
2.745279312133789,1,1,28735,1795.938
2.7492620944976807,1,1,25738,1608.625
2.753261089324951,1,1,23316,1457.250
2.7572710514068604,1,1,25191,1574.438
2.7612783908843994,1,1,28578,1786.125
2.765282154083252,1,1,28675,1792.188
2.7692744731903076,1,1,25765,1610.312
2.7732746601104736,1,1,23304,1456.500
2.777268886566162,1,1,25086,1567.875
2.7812743186950684,1,1,28453,1778.312
2.7852799892425537,1,1,28607,1787.938
2.7892723083496094,1,1,25757,1609.812
2.7932777404785156,1,1,23300,1456.250
2.797274112701416,1,1,25019,1563.688
2.801273822784424,1,1,28530,1783.125
2.8052775859832764,1,1,28753,1797.062
2.809274196624756,1,1,25893,1618.312
2.813272476196289,1,1,23268,1454.250
2.8172669410705566,1,1,24801,1550.062
2.821270227432251,1,1,28350,1771.875
2.825277805328369,1,1,28781,1798.812
2.829261064529419,1,1,26057,1628.562
2.833259105682373,1,1,23419,1463.688
2.8372464179992676,1,1,24806,1550.375
2.841240167617798,1,1,28204,1762.750
2.845242738723755,1,1,28615,1788.438
2.8492391109466553,1,1,25906,1619.125
2.8532369136810303,1,1,23320,1457.500
2.8572328090667725,1,1,24711,1544.438
2.8612334728240967,1,1,28284,1767.750
2.8652431964874268,1,1,28885,1805.312
2.8692331314086914,1,1,26124,1632.750
2.873231887817383,1,1,23275,1454.688
2.8772361278533936,1,1,24458,1528.625
2.881237268447876,1,1,28045,1752.812
2.8852391242980957,1,1,28789,1799.312
2.8892335891723633,1,1,26199,1637.438
2.8932337760925293,1,1,23383,1461.438
2.897507905960083,1,1,24448,1528.000
2.9024345874786377,1,1,28974,1810.875
2.9053049087524414,1,1,28974,1810.875
2.9092607498168945,1,1,26482,1655.125
2.913234233856201,1,1,23556,1472.250
2.917229175567627,1,1,24421,1526.312
2.921234607696533,1,1,27961,1747.562
2.92522931098938,1,1,28899,1806.188
2.929227590560913,1,1,26450,1653.125
2.9332220554351807,1,1,23459,1466.188
2.9372315406799316,1,1,24160,1510.000
2.9412291049957275,1,1,27731,1733.188
2.945241689682007,1,1,28859,1803.688
2.9492435455322266,1,1,26510,1656.875
2.953242063522339,1,1,23507,1469.188
2.957231283187866,1,1,24135,1508.438
2.9612464904785156,1,1,27707,1731.688
2.9652419090270996,1,1,28902,1806.375
2.9692368507385254,1,1,26569,1660.562
2.9732329845428467,1,1,23581,1473.812
2.977234125137329,1,1,24103,1506.438
2.981234073638916,1,1,27680,1730.000
2.985238790512085,1,1,29015,1813.438
2.989229917526245,1,1,26772,1673.250
2.9932312965393066,1,1,23721,1482.562
2.99722957611084,1,1,24060,1503.750
3.0012316703796387,1,1,27541,1721.312
3.0052359104156494,1,1,26707,1669.188
3.0092384815216064,1,1,23634,1477.125
3.013230323791504,1,1,23893,1493.312
3.0233447551727295,1,1,28960,1810.000
3.025275945663452,1,1,26910,1681.875
3.029240131378174,1,1,23783,1486.438
3.033236026763916,1,1,23929,1495.562
3.0372769832611084,1,1,27475,1717.188
3.0412354469299316,1,1,29048,1815.500
3.0452423095703125,1,1,27003,1687.688
3.0492308139801025,1,1,23867,1491.688
3.0532307624816895,1,1,23914,1494.625
3.0572280883789062,1,1,27461,1716.312
3.0612313747406006,1,1,29215,1825.938
3.0652377605438232,1,1,27226,1701.625
3.0692298412323,1,1,23969,1498.062
3.073230743408203,1,1,23753,1484.562
3.07723069190979,1,1,27192,1699.500
3.081231117248535,1,1,29058,1816.125
3.0852386951446533,1,1,27166,1697.875
3.0892333984375,1,1,23949,1496.812
3.093229055404663,1,1,23673,1479.562
3.09722638130188,1,1,27130,1695.625
3.101226568222046,1,1,29129,1820.562
3.1052346229553223,1,1,27403,1712.688
3.109229803085327,1,1,24204,1512.750
3.113229513168335,1,1,23729,1483.062
3.1172306537628174,1,1,27004,1687.750
3.1212282180786133,1,1,28908,1806.750
3.125239133834839,1,1,27203,1700.188
3.1292285919189453,1,1,24031,1501.938
3.133227825164795,1,1,23496,1468.500
3.1373143196105957,1,1,26815,1675.938
3.1412789821624756,1,1,28945,1809.062
3.1452813148498535,1,1,27359,1709.938
3.149266481399536,1,1,24170,1510.625
3.153266191482544,1,1,23466,1466.625
3.1572678089141846,1,1,26665,1666.562
3.1612703800201416,1,1,28874,1804.625
3.165273427963257,1,1,27425,1714.062
3.1692662239074707,1,1,24255,1515.938
3.173264980316162,1,1,23454,1465.875
3.177266836166382,1,1,26642,1665.125
3.1812639236450195,1,1,28950,1809.375
3.185272693634033,1,1,27505,1719.062
3.1892640590667725,1,1,24300,1518.750
3.193267822265625,1,1,23354,1459.625
3.197268486022949,1,1,26487,1655.438
3.2012648582458496,1,1,28902,1806.375
3.2052767276763916,1,1,27545,1721.562
3.2092669010162354,1,1,24271,1516.938
3.2132630348205566,1,1,23216,1451.000
3.2172651290893555,1,1,26343,1646.438
3.2212634086608887,1,1,28859,1803.688
3.2252678871154785,1,1,27632,1727.000
3.229264974594116,1,1,24439,1527.438
3.233269214630127,1,1,23286,1455.375
3.237283229827881,1,1,26338,1646.125
3.2412467002868652,1,1,28964,1810.250
3.2452399730682373,1,1,27784,1736.500
3.249218702316284,1,1,24553,1534.562
3.2532169818878174,1,1,23251,1453.188
3.2572293281555176,1,1,26195,1637.188
3.261230707168579,1,1,28944,1809.000
3.2652347087860107,1,1,27926,1745.375
3.269226312637329,1,1,24656,1541.000
3.2732279300689697,1,1,23175,1448.438
3.277226686477661,1,1,26018,1626.125
3.2812256813049316,1,1,28752,1797.000
3.2852320671081543,1,1,27763,1735.188
3.289229393005371,1,1,24614,1538.375
3.293227195739746,1,1,23080,1442.500
3.2972218990325928,1,1,25815,1613.438
3.3012256622314453,1,1,28770,1798.125
3.305234432220459,1,1,27973,1748.312
3.3092329502105713,1,1,24737,1546.062
3.313251256942749,1,1,23035,1439.688
3.317232370376587,1,1,25713,1607.062
3.321223735809326,1,1,28697,1793.562
3.325303316116333,1,1,27975,1748.438
3.329457998275757,1,1,24761,1547.562
3.3333961963653564,1,1,23015,1438.438
3.337247848510742,1,1,25611,1600.688
3.341352939605713,1,1,28618,1788.625
3.345366954803467,1,1,27992,1749.500
3.34928297996521,1,1,24895,1555.938
3.3532845973968506,1,1,23075,1442.188
3.3572683334350586,1,1,25559,1597.438
3.36126971244812,1,1,28648,1790.500
3.365274429321289,1,1,28182,1761.375
3.3692729473114014,1,1,25130,1570.625
3.373265504837036,1,1,23147,1446.688
3.377265214920044,1,1,25499,1593.688
3.3812613487243652,1,1,28607,1787.938
3.3852760791778564,1,1,28211,1763.188
3.3892674446105957,1,1,25195,1574.688
3.393263101577759,1,1,23180,1448.750
3.3972649574279785,1,1,25448,1590.500
3.4012644290924072,1,1,28560,1785.000
3.405273199081421,1,1,28133,1758.312
3.4092655181884766,1,1,25047,1565.438
3.413264036178589,1,1,22966,1435.375
3.4172635078430176,1,1,25203,1575.188
3.4212605953216553,1,1,28442,1777.625
3.4252686500549316,1,1,28200,1762.500
3.4292638301849365,1,1,25167,1572.938
3.433269500732422,1,1,22970,1435.625
3.437262773513794,1,1,25093,1568.312
3.4413437843322754,1,1,28455,1778.438
3.4452414512634277,1,1,28384,1774.000
3.449227809906006,1,1,25387,1586.688
3.453228235244751,1,1,22979,1436.188
3.4572267532348633,1,1,24853,1553.312
3.4612269401550293,1,1,28187,1761.688
3.46523118019104,1,1,28264,1766.500
3.4692249298095703,1,1,25437,1589.812
3.473224639892578,1,1,23069,1441.812
3.477226734161377,1,1,24960,1560.000
3.481229305267334,1,1,28436,1777.250
3.4852330684661865,1,1,28575,1785.938
3.489227294921875,1,1,25650,1603.125
3.493225574493408,1,1,23124,1445.250
3.497220754623413,1,1,24882,1555.125
3.5012166500091553,1,1,28370,1773.125
3.5052247047424316,1,1,28576,1786.000
3.509228229522705,1,1,25667,1604.188
3.513230323791504,1,1,23083,1442.688
3.517221450805664,1,1,24734,1545.875
3.5212149620056152,1,1,28242,1765.125
3.52522873878479,1,1,28597,1787.312
3.529228687286377,1,1,25778,1611.125
3.5332233905792236,1,1,23102,1443.875
3.5372209548950195,1,1,24514,1532.125
3.541247606277466,1,1,28011,1750.688
3.5452702045440674,1,1,28503,1781.438
3.5492665767669678,1,1,25826,1614.125
3.5532712936401367,1,1,23185,1449.062
3.5572614669799805,1,1,24534,1533.375
3.561260938644409,1,1,28009,1750.562
3.565272331237793,1,1,28529,1783.062
3.5692713260650635,1,1,25876,1617.250
3.5732603073120117,1,1,23193,1449.562
3.5772554874420166,1,1,24372,1523.250
3.5812597274780273,1,1,27865,1741.562
3.585265636444092,1,1,28548,1784.250
3.5892622470855713,1,1,25942,1621.375
3.5932583808898926,1,1,23177,1448.562
3.5972654819488525,1,1,24311,1519.438
3.6012625694274902,1,1,27849,1740.562
3.605266571044922,1,1,28620,1788.750
3.609260320663452,1,1,23189,1449.312
3.613257884979248,1,1,24184,1511.500
3.6172595024108887,1,1,27793,1737.062
3.6212611198425293,1,1,28725,1795.312
3.625265598297119,1,1,26249,1640.562
3.62924861907959,1,1,23348,1459.250
3.633249044418335,1,1,24201,1512.562
3.6372599601745605,1,1,27749,1734.312
3.641282558441162,1,1,28721,1795.062
3.6452410221099854,1,1,26270,1641.875
3.649226427078247,1,1,23285,1455.312
3.653226613998413,1,1,23943,1496.438
3.657223701477051,1,1,27534,1720.875
3.6612203121185303,1,1,28697,1793.562
3.6652286052703857,1,1,26366,1647.875
3.669222593307495,1,1,23375,1460.938
3.6732258796691895,1,1,23998,1499.875
3.6772239208221436,1,1,27661,1728.812
3.6812195777893066,1,1,28912,1807.000
3.6852307319641113,1,1,26543,1658.938
3.6892247200012207,1,1,23408,1463.000
3.693223714828491,1,1,23745,1484.062
3.6972203254699707,1,1,27301,1706.312
3.7012224197387695,1,1,28737,1796.062
3.7052323818206787,1,1,26605,1662.812
3.7092254161834717,1,1,23460,1466.250
3.7132246494293213,1,1,23748,1484.250
3.7172250747680664,1,1,27395,1712.188
3.721224784851074,1,1,28916,1807.250
3.7252309322357178,1,1,26805,1675.312
3.7292251586914062,1,1,23656,1478.500
3.733224391937256,1,1,23785,1486.562
3.7372207641601562,1,1,27284,1705.250
3.7412240505218506,1,1,28783,1798.938
3.74531626701355,1,1,26751,1671.938
3.749255895614624,1,1,23622,1476.375
3.753255605697632,1,1,23617,1476.062
3.757260799407959,1,1,27135,1695.938
3.7612621784210205,1,1,28823,1801.438
3.7652690410614014,1,1,26850,1678.125
3.769261121749878,1,1,23640,1477.500
3.773258924484253,1,1,23515,1469.688
3.7772610187530518,1,1,26999,1687.438
3.781259536743164,1,1,28768,1798.000
3.7852678298950195,1,1,26896,1681.000
3.7892587184906006,1,1,23698,1481.125
3.793260335922241,1,1,23449,1465.562
3.79725980758667,1,1,26905,1681.562
3.8012936115264893,1,1,28814,1800.875
3.8052749633789062,1,1,27036,1689.750
3.809262752532959,1,1,23879,1492.438
3.8132591247558594,1,1,23555,1472.188
3.817253589630127,1,1,26951,1684.438
3.8212568759918213,1,1,28875,1804.688
3.8252639770507812,1,1,27086,1692.875
3.829258680343628,1,1,23860,1491.250
3.8332560062408447,1,1,23403,1462.688
3.8372576236724854,1,1,26760,1672.500
3.841257333755493,1,1,28819,1801.188
3.8454043865203857,1,1,27119,1694.938
3.8492300510406494,1,1,23870,1491.875
3.8532207012176514,1,1,23282,1455.125
3.857217311859131,1,1,26677,1667.312
3.861220359802246,1,1,28909,1806.812
3.8652327060699463,1,1,27358,1709.875
3.869208812713623,1,1,24071,1504.438
3.8732075691223145,1,1,23209,1450.562
3.8772189617156982,1,1,26409,1650.562
3.881221055984497,1,1,28726,1795.375
3.8852288722991943,1,1,27346,1709.125
3.889218807220459,1,1,24170,1510.625
3.8932201862335205,1,1,23228,1451.750
3.897463798522949,1,1,26339,1646.188
3.902420997619629,1,1,28708,1794.250
3.9053022861480713,1,1,27322,1707.625
3.9092531204223633,1,1,24117,1507.312
3.913219690322876,1,1,23188,1449.250
3.9172184467315674,1,1,26336,1646.000
3.921213388442993,1,1,28815,1800.938
3.9252188205718994,1,1,27545,1721.562
3.9292125701904297,1,1,24320,1520.000
3.933212995529175,1,1,23223,1451.438
3.9372341632843018,1,1,26265,1641.562
3.941222906112671,1,1,28786,1799.125
3.9452719688415527,1,1,27548,1721.750
3.9492239952087402,1,1,24330,1520.625
3.9532179832458496,1,1,23067,1441.688
3.9572174549102783,1,1,26010,1625.625
3.961221694946289,1,1,28639,1789.938
3.965226411819458,1,1,27557,1722.312
3.969223737716675,1,1,24396,1524.750
3.973222494125366,1,1,23085,1442.812
3.9772181510925293,1,1,26034,1627.125
3.9812183380126953,1,1,28768,1798.000
3.9852261543273926,1,1,27763,1735.188
3.989220380783081,1,1,24577,1536.062
3.9932186603546143,1,1,23084,1442.750
3.997218370437622,1,1,25853,1615.812
4.001211643218994,1,1,28629,1789.312
4.0052289962768555,1,1,27688,1730.500
4.009225130081177,1,1,24500,1531.250
4.013219356536865,1,1,22975,1435.938
4.01722264289856,1,1,25716,1607.250
4.02704381942749,1,1,24734,1545.875
4.029235124588013,1,1,24734,1545.875
4.033214092254639,1,1,23033,1439.562
4.037230014801025,1,1,25608,1600.500
4.041224002838135,1,1,28533,1783.312
4.045225143432617,1,1,27847,1740.438
4.0492637157440186,1,1,24742,1546.375
4.053224086761475,1,1,22976,1436.000
4.057222127914429,1,1,25556,1597.250
4.061223030090332,1,1,28664,1791.500
4.065231084823608,1,1,28133,1758.312
4.069220781326294,1,1,25013,1563.312
4.073219299316406,1,1,23017,1438.562
4.077225923538208,1,1,25380,1586.250
4.081223011016846,1,1,28532,1783.250
4.085226058959961,1,1,28094,1755.875
4.0892181396484375,1,1,25028,1564.250
4.093218803405762,1,1,22986,1436.625
4.097219228744507,1,1,25324,1582.750
4.10122013092041,1,1,28500,1781.250
4.1052210330963135,1,1,28114,1757.125
4.109221696853638,1,1,25052,1565.750
4.113218545913696,1,1,22984,1436.500
4.117218971252441,1,1,25198,1574.875
4.121221542358398,1,1,28405,1775.312
4.125223875045776,1,1,28217,1763.562
4.129219055175781,1,1,25225,1576.562
4.1332151889801025,1,1,22950,1434.375
4.137220621109009,1,1,24984,1561.500
4.141226530075073,1,1,28300,1768.750
4.145230293273926,1,1,28273,1767.062
4.149304151535034,1,1,25325,1582.812
4.153265953063965,1,1,23021,1438.812
4.157258749008179,1,1,25001,1562.562
4.161262035369873,1,1,28325,1770.312
4.165261268615723,1,1,28315,1769.688
4.169257640838623,1,1,25389,1586.812
4.173253297805786,1,1,22958,1434.875
4.177253723144531,1,1,24758,1547.375
4.181257724761963,1,1,28057,1753.562
4.185266733169556,1,1,28182,1761.375
4.189253568649292,1,1,25377,1586.062
4.193255662918091,1,1,23005,1437.812
4.197258710861206,1,1,24762,1547.625
4.201257705688477,1,1,28181,1761.312
4.205259084701538,1,1,28351,1771.938
4.209254503250122,1,1,25493,1593.312
4.213252782821655,1,1,24576,1536.000
4.217255592346191,1,1,28015,1750.938
4.221254110336304,1,1,28369,1773.062
4.225260496139526,1,1,25619,1601.188
4.229257106781006,1,1,23069,1441.812
4.233256816864014,1,1,24596,1537.250
4.237260103225708,1,1,28133,1758.312
4.2412590980529785,1,1,28588,1786.750
4.245257616043091,1,1,25770,1610.625
4.249310493469238,1,1,23074,1442.125
4.2532126903533936,1,1,24451,1528.188
4.257219552993774,1,1,28012,1750.750
4.261220693588257,1,1,28605,1787.812
4.265225172042847,1,1,25970,1623.125
4.2692177295684814,1,1,23182,1448.875
4.273219585418701,1,1,24283,1517.688
4.2772181034088135,1,1,27792,1737.000
4.281217813491821,1,1,28479,1779.938
4.285224199295044,1,1,25798,1612.375
4.2892138957977295,1,1,22966,1435.375
4.293213367462158,1,1,24133,1508.312
4.2972166538238525,1,1,27779,1736.188
4.3012144565582275,1,1,28581,1786.312
4.305222988128662,1,1,26009,1625.562
4.309215545654297,1,1,23132,1445.750
4.3132359981536865,1,1,24068,1504.250
4.317243814468384,1,1,27639,1727.438
4.321223974227905,1,1,28603,1787.688
4.325220108032227,1,1,26140,1633.750
4.329208850860596,1,1,23269,1454.312
4.333386182785034,1,1,24133,1508.312
4.337456464767456,1,1,27695,1730.938
4.341280460357666,1,1,28692,1793.250
4.345240831375122,1,1,26206,1637.875
4.34923791885376,1,1,23214,1450.875
4.353288173675537,1,1,23942,1496.375
4.357235431671143,1,1,27555,1722.188
4.361237287521362,1,1,28679,1792.438
4.365221738815308,1,1,26305,1644.062
4.36922287940979,1,1,23329,1458.062
4.373216152191162,1,1,23891,1493.188
4.377216339111328,1,1,27447,1715.438
4.381220817565918,1,1,28703,1793.938
4.3852219581604,1,1,26445,1652.812
4.389215469360352,1,1,23432,1464.500
4.393217086791992,1,1,23846,1490.375
4.397221565246582,1,1,27339,1708.688
4.401220321655273,1,1,28656,1791.000
4.405215501785278,1,1,26442,1652.625
4.409214973449707,1,1,23416,1463.500
4.413213491439819,1,1,23756,1484.750
4.417214870452881,1,1,27307,1706.688
4.421220064163208,1,1,28769,1798.062
4.4252238273620605,1,1,26584,1661.500
4.429216623306274,1,1,23423,1463.938
4.433218955993652,1,1,23604,1475.250
4.437213182449341,1,1,27158,1697.375
4.441215991973877,1,1,28720,1795.000
4.445219278335571,1,1,26591,1661.938
4.44921875,1,1,23437,1464.812
4.453288555145264,1,1,23443,1465.188
4.457254648208618,1,1,26917,1682.312
4.461254119873047,1,1,28641,1790.062
4.465264797210693,1,1,26692,1668.250
4.4692542552948,1,1,23546,1471.625
4.473249673843384,1,1,23496,1468.500
4.477254390716553,1,1,26988,1686.750
4.4812538623809814,1,1,28761,1797.562
4.485257148742676,1,1,26868,1679.250
4.489253044128418,1,1,23724,1482.750
4.49324893951416,1,1,23524,1470.250
4.49724006652832,1,1,26958,1684.875
4.501240015029907,1,1,28781,1798.812
4.505256652832031,1,1,26918,1682.375
4.509249210357666,1,1,23774,1485.875
4.513248682022095,1,1,23409,1463.062
4.517251491546631,1,1,26708,1669.250
4.521257162094116,1,1,28633,1789.562
4.525258779525757,1,1,26898,1681.125
4.529250144958496,1,1,23715,1482.188
4.53325080871582,1,1,23255,1453.438
4.537242889404297,1,1,26598,1662.375
4.541241645812988,1,1,28666,1791.625
4.545248746871948,1,1,27041,1690.062
4.549253225326538,1,1,23839,1489.938
4.553308963775635,1,1,23208,1450.500
4.557257890701294,1,1,26487,1655.438
4.561237812042236,1,1,28675,1792.188
4.565245628356934,1,1,27077,1692.312
4.569254159927368,1,1,23800,1487.500
4.573248863220215,1,1,23076,1442.250
4.577245473861694,1,1,26427,1651.688
4.58124852180481,1,1,28784,1799.000
4.585254907608032,1,1,27355,1709.688
4.589247703552246,1,1,24052,1503.250
4.5932464599609375,1,1,23038,1439.875
4.597255706787109,1,1,26119,1632.438
4.60125207901001,1,1,28523,1782.688
4.605254888534546,1,1,27186,1699.125
4.609247446060181,1,1,24057,1503.562
4.6132471561431885,1,1,23147,1446.688
4.617249965667725,1,1,26291,1643.188
4.621252775192261,1,1,28686,1792.875
4.625258445739746,1,1,27352,1709.500
4.629247665405273,1,1,24111,1506.938
4.633251428604126,1,1,23002,1437.625
4.637251138687134,1,1,26115,1632.188
4.6412577629089355,1,1,28685,1792.812
4.645255088806152,1,1,27569,1723.062
4.649235486984253,1,1,24448,1528.000
4.653248310089111,1,1,23288,1455.500
4.657221078872681,1,1,26235,1639.688
4.6612160205841064,1,1,28784,1799.000
4.6652209758758545,1,1,27568,1723.000
4.669210433959961,1,1,24294,1518.375
4.673214912414551,1,1,22909,1431.812
4.677209377288818,1,1,25797,1612.312
4.681215524673462,1,1,28559,1784.938
4.685216426849365,1,1,27613,1725.812
4.689214706420898,1,1,24450,1528.125
4.6932103633880615,1,1,23008,1438.000
4.69720721244812,1,1,25796,1612.250
4.701210975646973,1,1,28629,1789.312
4.705221891403198,1,1,27763,1735.188
4.709213495254517,1,1,24545,1534.062
4.71320652961731,1,1,22969,1435.562
4.717206001281738,1,1,25709,1606.812
4.721215724945068,1,1,28635,1789.688
4.725208282470703,1,1,27823,1738.938
4.729206323623657,1,1,24617,1538.562
4.7332069873809814,1,1,22918,1432.375
4.737208366394043,1,1,25517,1594.812
4.7412097454071045,1,1,28430,1776.875
4.745218753814697,1,1,27745,1734.062
4.7492005825042725,1,1,24664,1541.500
4.753199338912964,1,1,22984,1436.500
4.75725531578064,1,1,25589,1599.312
4.761255979537964,1,1,28588,1786.750
4.765253305435181,1,1,27891,1743.188
4.769251108169556,1,1,24710,1544.375
4.773247003555298,1,1,22790,1424.375
4.777247428894043,1,1,25231,1576.938
4.781248331069946,1,1,28408,1775.500
4.785256624221802,1,1,27975,1748.438
4.78924822807312,1,1,24919,1557.438
4.793250799179077,1,1,22991,1436.938
4.79725193977356,1,1,25374,1585.875
4.801249742507935,1,1,28537,1783.562
4.805254220962524,1,1,28145,1759.062
4.809246778488159,1,1,24986,1561.625
4.813244104385376,1,1,22797,1424.812
4.817248821258545,1,1,28327,1770.438
4.821250677108765,1,1,28128,1758.000
4.825251579284668,1,1,25147,1571.688
4.829235315322876,1,1,22961,1435.062
4.833235263824463,1,1,25063,1566.438
4.837255239486694,1,1,28304,1769.000
4.841249227523804,1,1,28139,1758.688
4.845251560211182,1,1,25231,1576.938
4.84925103187561,1,1,22969,1435.562
4.853243827819824,1,1,24951,1559.438
4.857250452041626,1,1,28167,1760.438
4.8612213134765625,1,1,28032,1752.000
4.865219831466675,1,1,25108,1569.250
4.869209051132202,1,1,22839,1427.438
4.873211860656738,1,1,24781,1548.812
4.877217054367065,1,1,28188,1761.750
4.881210803985596,1,1,28274,1767.125
4.885207414627075,1,1,25319,1582.438
4.889209270477295,1,1,22883,1430.188
4.893207788467407,1,1,24660,1541.250
4.897462368011475,1,1,28068,1754.250
4.902456045150757,1,1,28239,1764.938
4.90529203414917,1,1,25380,1586.250
4.909235954284668,1,1,22926,1432.875
4.913220405578613,1,1,24637,1539.812
4.91723108291626,1,1,28037,1752.312
4.921218156814575,1,1,28260,1766.250
4.925220251083374,1,1,25432,1589.500
4.929214000701904,1,1,22889,1430.562
4.933212518692017,1,1,24515,1532.188
4.937225818634033,1,1,28011,1750.688
4.941215515136719,1,1,28372,1773.250
4.945225954055786,1,1,25538,1596.125
4.9492151737213135,1,1,22817,1426.062
4.953212261199951,1,1,24286,1517.875
4.957322835922241,1,1,27868,1741.750
4.961291313171387,1,1,28404,1775.250
4.965263605117798,1,1,25740,1608.750
4.969258546829224,1,1,23049,1440.562
4.973252058029175,1,1,24311,1519.438
4.9772562980651855,1,1,27802,1737.625
4.981249570846558,1,1,28464,1779.000
4.985260248184204,1,1,25867,1616.688
4.989251613616943,1,1,23045,1440.312
4.99325156211853,1,1,24141,1508.812
4.997252941131592,1,1,27750,1734.375
5.001242399215698,1,1,28600,1787.500
5.005248308181763,1,1,26121,1632.562
5.009257078170776,1,1,23280,1455.000
5.013255834579468,1,1,24175,1510.938
5.01724910736084,1,1,27687,1730.438
5.021254301071167,1,1,28574,1785.875
5.046082973480225,1,1,26085,1630.312
5.049310684204102,1,1,23185,1449.062
5.053265571594238,1,1,24026,1501.625
5.057260990142822,1,1,27661,1728.812
5.061223268508911,1,1,28724,1795.250
5.065232038497925,1,1,26265,1641.562
5.069210767745972,1,1,23274,1454.625
5.0732128620147705,1,1,23886,1492.875
5.077234506607056,1,1,27488,1718.000
5.0812132358551025,1,1,28713,1794.562
5.085220813751221,1,1,26312,1644.500
5.089214563369751,1,1,23281,1455.062
5.093211889266968,1,1,23843,1490.188
5.097208499908447,1,1,27395,1712.188
5.101213455200195,1,1,28658,1791.125
5.105222702026367,1,1,26405,1650.312
5.109212636947632,1,1,23363,1460.188
5.113208770751953,1,1,23676,1479.750
5.117215156555176,1,1,27200,1700.000
5.121215343475342,1,1,28617,1788.562
5.125218868255615,1,1,26475,1654.688
5.12921142578125,1,1,23412,1463.250
5.133208751678467,1,1,23631,1476.938
5.137230157852173,1,1,27182,1698.875
5.141222953796387,1,1,28684,1792.750
5.145217418670654,1,1,26491,1655.688
5.149205446243286,1,1,23324,1457.750
5.153201103210449,1,1,23467,1466.688
5.157313108444214,1,1,27068,1691.750
5.161319017410278,1,1,28731,1795.688
5.1652913093566895,1,1,26691,1668.188
5.169262647628784,1,1,23483,1467.688
5.173250913619995,1,1,23445,1465.312
5.1772544384002686,1,1,26975,1685.938
5.181248426437378,1,1,28690,1793.125
5.18526291847229,1,1,26704,1669.000
5.189253807067871,1,1,23499,1468.688
5.193251848220825,1,1,23349,1459.312
5.197254180908203,1,1,26850,1678.125
5.201251983642578,1,1,28716,1794.750
5.20525860786438,1,1,26875,1679.688
5.209249496459961,1,1,23685,1480.312
5.213250160217285,1,1,23386,1461.625
5.217248439788818,1,1,26811,1675.688
5.221247673034668,1,1,28715,1794.688
5.2252607345581055,1,1,26884,1680.250
5.229261159896851,1,1,23659,1478.688
5.233248472213745,1,1,23234,1452.125
5.237250089645386,1,1,26572,1660.750
5.24125337600708,1,1,28653,1790.812
5.245256662368774,1,1,27010,1688.125
5.249236822128296,1,1,23832,1489.500
5.253235816955566,1,1,23255,1453.438
5.2572526931762695,1,1,26567,1660.438
5.261358022689819,1,1,28795,1799.688
5.265224933624268,1,1,27228,1701.750
5.269217014312744,1,1,23988,1499.250
5.273214817047119,1,1,23271,1454.438
5.277214288711548,1,1,26491,1655.688
5.281216621398926,1,1,28712,1794.500
5.285216808319092,1,1,27196,1699.750
5.289209604263306,1,1,23937,1496.062
5.293206453323364,1,1,23110,1444.375
5.297219753265381,1,1,26354,1647.125
5.301207780838013,1,1,28689,1793.062
5.305216312408447,1,1,27228,1701.750
5.309207916259766,1,1,23977,1498.562
5.3132240772247314,1,1,23051,1440.688
5.317243576049805,1,1,26227,1639.188
5.321232557296753,1,1,28677,1792.312
5.325217962265015,1,1,27320,1707.500
5.329329013824463,1,1,24073,1504.562
5.333500385284424,1,1,23007,1437.938
5.337376832962036,1,1,26121,1632.562
5.341229677200317,1,1,28688,1793.000
5.34523344039917,1,1,27466,1716.625
5.349310874938965,1,1,24201,1512.562
5.3532493114471436,1,1,23014,1438.375
5.35723876953125,1,1,25988,1624.250
5.361211061477661,1,1,28601,1787.562
5.365202903747559,1,1,27540,1721.250
5.369207382202148,1,1,24363,1522.688
5.373197793960571,1,1,23047,1440.438
5.377202272415161,1,1,25942,1621.375
5.38119912147522,1,1,28640,1790.000
5.385202407836914,1,1,27577,1723.562
5.389197826385498,1,1,24315,1519.688
5.3931989669799805,1,1,22814,1425.875
5.397198915481567,1,1,25619,1601.188
5.401198148727417,1,1,28395,1774.688
5.405199289321899,1,1,27466,1716.625
5.409196615219116,1,1,24349,1521.812
5.413195848464966,1,1,22971,1435.688
5.417217493057251,1,1,25779,1611.188
5.421206474304199,1,1,28563,1785.188
5.425219774246216,1,1,24394,1524.625
5.4292662143707275,1,1,22772,1423.250
5.433210372924805,1,1,25468,1591.750
5.437211751937866,1,1,28480,1780.000
5.441208362579346,1,1,27848,1740.500
5.445216417312622,1,1,24731,1545.688
5.449206590652466,1,1,22973,1435.812
5.453207969665527,1,1,25570,1598.125
5.457209825515747,1,1,28572,1785.750
5.461211442947388,1,1,27864,1741.500
5.465259552001953,1,1,24729,1545.562
5.469246864318848,1,1,22989,1436.812
5.473247051239014,1,1,25504,1594.000
5.477246522903442,1,1,28545,1784.062
5.481247425079346,1,1,27942,1746.375
5.4852516651153564,1,1,24795,1549.688
5.489244222640991,1,1,22863,1428.938
5.49324369430542,1,1,25253,1578.312
5.497240781784058,1,1,28371,1773.188
5.501232385635376,1,1,27960,1747.500
5.505247592926025,1,1,24905,1556.562
5.5092504024505615,1,1,22821,1426.312
5.513246297836304,1,1,25066,1566.625
5.5172438621521,1,1,28246,1765.375
5.521248817443848,1,1,27961,1747.562
5.525249719619751,1,1,24984,1561.500
5.529244661331177,1,1,22898,1431.125
5.533244371414185,1,1,25062,1566.375
5.537245988845825,1,1,28260,1766.250
5.541242599487305,1,1,28067,1754.188
5.5452492237091064,1,1,25098,1568.625
5.5492448806762695,1,1,22883,1430.188
5.55324649810791,1,1,24978,1561.125
5.557244300842285,1,1,28353,1772.062
5.561233043670654,1,1,28301,1768.812
5.565339088439941,1,1,25250,1578.125
5.56921648979187,1,1,22915,1432.188
5.573206901550293,1,1,24894,1555.875
5.577209949493408,1,1,28256,1766.000
5.581206321716309,1,1,28288,1768.000
5.585210561752319,1,1,25366,1585.375
5.589207887649536,1,1,22976,1436.000
5.593206167221069,1,1,24766,1547.875
5.597205400466919,1,1,28119,1757.438
5.6012067794799805,1,1,28249,1765.562
5.605209589004517,1,1,25355,1584.688
5.609210014343262,1,1,22864,1429.000
5.613207101821899,1,1,24549,1534.312
5.617198944091797,1,1,27996,1749.750
5.621194124221802,1,1,28277,1767.312
5.625197410583496,1,1,25452,1590.750
5.629195928573608,1,1,22917,1432.312
5.633192300796509,1,1,24543,1533.938
5.637207269668579,1,1,28005,1750.312
5.641227722167969,1,1,28330,1770.625
5.645211219787598,1,1,25534,1595.875
5.649210214614868,1,1,22897,1431.062
5.65320611000061,1,1,24342,1521.375
5.657203435897827,1,1,27880,1742.500
5.661205291748047,1,1,28440,1777.500
5.665257215499878,1,1,25753,1609.562
5.669255018234253,1,1,23027,1439.188
5.673248052597046,1,1,24280,1517.500
5.677243947982788,1,1,27768,1735.500
5.681246995925903,1,1,28408,1775.500
5.685252666473389,1,1,25836,1614.750
5.689243793487549,1,1,23115,1444.688
5.693241834640503,1,1,24354,1522.125
5.6972410678863525,1,1,27878,1742.375
5.701235771179199,1,1,28511,1781.938
5.7052552700042725,1,1,25884,1617.750
5.709242105484009,1,1,23063,1441.438
5.71324610710144,1,1,24112,1507.000
5.717244386672974,1,1,27658,1728.625
5.7212371826171875,1,1,28455,1778.438
5.725245952606201,1,1,25901,1618.812
5.7292444705963135,1,1,23023,1438.938
5.733239650726318,1,1,24000,1500.000
5.737237930297852,1,1,27573,1723.312
5.741236686706543,1,1,28483,1780.188
5.74524712562561,1,1,26009,1625.562
5.7492311000823975,1,1,23126,1445.375
5.753226280212402,1,1,23918,1494.875
5.757240056991577,1,1,27449,1715.562
5.761236667633057,1,1,28463,1778.938
5.765325307846069,1,1,26050,1628.125
5.769206285476685,1,1,23109,1444.312
5.7732062339782715,1,1,23862,1491.375
5.77720832824707,1,1,27493,1718.312
5.781206369400024,1,1,28619,1788.688
5.7852113246917725,1,1,26254,1640.875
5.789201498031616,1,1,23193,1449.562
5.793207883834839,1,1,23724,1482.750
5.79720401763916,1,1,27334,1708.375
5.801199436187744,1,1,28643,1790.188
5.805210590362549,1,1,26411,1650.688
5.809204578399658,1,1,23316,1457.250
5.813204050064087,1,1,23686,1480.375
5.817202091217041,1,1,27210,1700.625
5.821199893951416,1,1,28558,1784.875
5.825207948684692,1,1,26351,1646.938
5.829204797744751,1,1,23278,1454.875
5.833200454711914,1,1,23608,1475.500
5.83720326423645,1,1,27190,1699.375
5.841202020645142,1,1,28755,1797.188
5.845200300216675,1,1,26712,1669.500
5.8491973876953125,1,1,23588,1474.250
5.853196144104004,1,1,23667,1479.188
5.85720157623291,1,1,27129,1695.562
5.861200571060181,1,1,28698,1793.625
5.865206480026245,1,1,26648,1665.500
5.869278192520142,1,1,23488,1468.000
5.8732335567474365,1,1,23475,1467.188
5.877248048782349,1,1,26948,1684.250
5.881240367889404,1,1,28657,1791.062
5.885246276855469,1,1,26742,1671.375
5.8892388343811035,1,1,23655,1478.438
5.893236875534058,1,1,23558,1472.375
5.897465944290161,1,1,27008,1688.000
5.901585340499878,1,1,28800,1800.000
5.905417442321777,1,1,26874,1679.625
5.909304857254028,1,1,23615,1475.938
5.913253307342529,1,1,23221,1451.312
5.917266845703125,1,1,26566,1660.375
5.9212424755096436,1,1,28493,1780.812
5.925245523452759,1,1,26734,1670.875
5.929242372512817,1,1,23594,1474.625
5.933239221572876,1,1,23233,1452.062
5.937254190444946,1,1,26605,1662.812
5.941241502761841,1,1,28568,1785.500
5.945244312286377,1,1,26860,1678.750
5.949234962463379,1,1,23693,1480.812
5.95323371887207,1,1,23145,1446.562
5.957400321960449,1,1,26495,1655.938
5.96124792098999,1,1,28616,1788.500
5.965245485305786,1,1,27045,1690.312
5.969360828399658,1,1,23898,1493.625
5.973204851150513,1,1,23239,1452.438
5.977203369140625,1,1,26515,1657.188
5.981200695037842,1,1,28701,1793.812
5.985212326049805,1,1,27158,1697.375
5.989203214645386,1,1,23887,1492.938
5.99319863319397,1,1,23061,1441.312
5.997198104858398,1,1,26301,1643.812
6.001190662384033,1,1,28689,1793.062
6.005199193954468,1,1,27284,1705.250
6.009204626083374,1,1,24024,1501.500
6.013198137283325,1,1,23057,1441.062
6.0172038078308105,1,1,26200,1637.500
6.02119779586792,1,1,28636,1789.750
6.025216341018677,1,1,27305,1706.562
6.029203653335571,1,1,23041,1440.062
6.033200979232788,1,1,26095,1630.938
6.037201166152954,1,1,28599,1787.438
6.041197299957275,1,1,27396,1712.250
6.050961494445801,1,1,23024,1439.000
6.053272724151611,1,1,26107,1631.688
6.057222843170166,1,1,28640,1790.000
6.061205148696899,1,1,27462,1716.375
6.065205335617065,1,1,24287,1517.938
6.069225311279297,1,1,22977,1436.062
6.073193311691284,1,1,25913,1619.562
6.0772011280059814,1,1,28564,1785.250
6.081201553344727,1,1,27554,1722.125
6.08519983291626,1,1,24374,1523.375
6.089199066162109,1,1,22945,1434.062
6.0931971073150635,1,1,25790,1611.875
6.097198486328125,1,1,28574,1785.875
6.101200819015503,1,1,27646,1727.875
6.1052093505859375,1,1,24490,1530.625
6.109199285507202,1,1,22949,1434.312
6.113204002380371,1,1,25702,1606.375
6.1172003746032715,1,1,28521,1782.562
6.121197938919067,1,1,27640,1727.500
6.125204801559448,1,1,24427,1526.688
6.129201412200928,1,1,22755,1422.188
6.13319730758667,1,1,25443,1590.188
6.1371965408325195,1,1,28413,1775.812
6.141202449798584,1,1,27721,1732.562
6.145211219787598,1,1,24589,1536.812
6.1491968631744385,1,1,22846,1427.875
6.153200149536133,1,1,25425,1589.062
6.157198667526245,1,1,28407,1775.438
6.161198854446411,1,1,27790,1736.875
6.165200233459473,1,1,24680,1542.500
6.169196844100952,1,1,22870,1429.375
6.173309803009033,1,1,25394,1587.125
6.177234888076782,1,1,28511,1781.938
6.181237697601318,1,1,28051,1753.188
6.18524694442749,1,1,25025,1564.062
6.189233779907227,1,1,23092,1443.250
6.193235397338867,1,1,25422,1588.875
6.197237253189087,1,1,28391,1774.438
6.201237201690674,1,1,27808,1738.000
6.205241918563843,1,1,24703,1543.938
6.209235191345215,1,1,22681,1417.562
6.213233709335327,1,1,25048,1565.500
6.217234373092651,1,1,28304,1769.000
6.2212347984313965,1,1,28038,1752.375
6.225241661071777,1,1,25001,1562.562
6.229234218597412,1,1,22808,1425.500
6.233234643936157,1,1,24929,1558.062
6.237246513366699,1,1,28170,1760.625
6.2412333488464355,1,1,27979,1748.688
6.245237588882446,1,1,25048,1565.500
6.249223947525024,1,1,22872,1429.500
6.253223180770874,1,1,24953,1559.562
6.2572338581085205,1,1,28228,1764.250
6.261233568191528,1,1,28105,1756.562
6.265244007110596,1,1,25145,1571.562
6.269232988357544,1,1,22758,1422.375
6.273300647735596,1,1,24672,1542.000
6.277199983596802,1,1,28049,1753.062
6.2811973094940186,1,1,28108,1756.750
6.285200119018555,1,1,25264,1579.000
6.289196252822876,1,1,22941,1433.812
6.29319429397583,1,1,24726,1545.375
6.297193288803101,1,1,28053,1753.312
6.301193475723267,1,1,28159,1759.938
6.305201292037964,1,1,25314,1582.125
6.309194564819336,1,1,22856,1428.500
6.313197135925293,1,1,24534,1533.375
6.317213296890259,1,1,27881,1742.562
6.321223258972168,1,1,28109,1756.812
6.32520318031311,1,1,25369,1585.562
6.3292200565338135,1,1,22920,1432.500
6.33344578742981,1,1,24553,1534.562
6.3373634815216064,1,1,28010,1750.625
6.341219425201416,1,1,28366,1772.875
6.345243453979492,1,1,25577,1598.562
6.349192380905151,1,1,22905,1431.562
6.353190183639526,1,1,24333,1520.812
6.3572728633880615,1,1,27841,1740.062
6.361224174499512,1,1,28321,1770.062
6.365212440490723,1,1,25642,1602.625
6.369199275970459,1,1,23005,1437.812
6.373232364654541,1,1,24341,1521.312
6.377203702926636,1,1,27830,1739.375
6.381194591522217,1,1,28343,1771.438
6.385199308395386,1,1,25598,1599.875
6.389192342758179,1,1,22816,1426.000
6.393194675445557,1,1,24119,1507.438
6.397205591201782,1,1,27759,1734.938
6.401196718215942,1,1,28484,1780.250
6.405197381973267,1,1,25898,1618.625
6.409196853637695,1,1,23066,1441.625
6.413193702697754,1,1,24083,1505.188
6.417195796966553,1,1,27615,1725.938
6.4211976528167725,1,1,28453,1778.312
6.425205707550049,1,1,25965,1622.812
6.429194927215576,1,1,23089,1443.062
6.433198690414429,1,1,24020,1501.250
6.437197685241699,1,1,27608,1725.500
6.441197872161865,1,1,28587,1786.688
6.445201635360718,1,1,26137,1633.562
6.449198961257935,1,1,23171,1448.188
6.4531943798065186,1,1,23910,1494.375
6.45718789100647,1,1,27433,1714.562
6.461197137832642,1,1,28468,1779.250
6.465208292007446,1,1,26103,1631.438
6.469195604324341,1,1,23160,1447.500
6.47319221496582,1,1,23858,1491.125
6.477309942245483,1,1,27420,1713.750
6.481235980987549,1,1,28561,1785.062
6.48523736000061,1,1,26209,1638.062
6.489234924316406,1,1,23198,1449.875
6.493231773376465,1,1,23750,1484.375
6.497222185134888,1,1,27348,1709.250
6.501219272613525,1,1,28618,1788.625
6.5052361488342285,1,1,26376,1648.500
6.50923490524292,1,1,23334,1458.375
6.513232946395874,1,1,23730,1483.125
6.517233371734619,1,1,27227,1701.688
6.521232604980469,1,1,28565,1785.312
6.5252392292022705,1,1,26365,1647.812
6.529232740402222,1,1,23275,1454.688
6.533235549926758,1,1,23591,1474.438
6.5372314453125,1,1,27153,1697.062
6.541231870651245,1,1,28688,1793.000
6.54524564743042,1,1,26605,1662.812
6.549233913421631,1,1,23418,1463.625
6.553232192993164,1,1,23523,1470.188
6.5572288036346436,1,1,27030,1689.375
6.561232328414917,1,1,28605,1787.812
6.565241813659668,1,1,26551,1659.438
6.569231986999512,1,1,23403,1462.688
6.5732293128967285,1,1,23462,1466.375
6.577304363250732,1,1,26976,1686.000
6.58118748664856,1,1,28653,1790.812
6.585198879241943,1,1,26633,1664.562
6.589194297790527,1,1,23384,1461.500
6.593195676803589,1,1,23241,1452.562
6.597194194793701,1,1,26705,1669.062
6.6011962890625,1,1,28587,1786.688
6.605198383331299,1,1,26760,1672.500
6.609195947647095,1,1,23590,1474.375
6.613193988800049,1,1,23327,1457.938
6.617198705673218,1,1,26716,1669.750
6.621195077896118,1,1,28618,1788.625
6.625196218490601,1,1,26831,1676.938
6.6291913986206055,1,1,23666,1479.125
6.633195877075195,1,1,26765,1672.812
6.637197494506836,1,1,28763,1797.688
6.641191720962524,1,1,27058,1691.125
6.645195960998535,1,1,23824,1489.000
6.649197101593018,1,1,23289,1455.562
6.653193712234497,1,1,26584,1661.500
6.657188415527344,1,1,28670,1791.875
6.661189079284668,1,1,27040,1690.000
6.665203809738159,1,1,23786,1486.625
6.669193506240845,1,1,23128,1445.500
6.673192977905273,1,1,26445,1652.812
6.677199840545654,1,1,28650,1790.625
6.681234836578369,1,1,27098,1693.625
6.685236930847168,1,1,23886,1492.875
6.6892311573028564,1,1,23121,1445.062
6.6932289600372314,1,1,26360,1647.500
6.697228193283081,1,1,28657,1791.062
6.701228380203247,1,1,27178,1698.625
6.705239295959473,1,1,23919,1494.938
6.7092320919036865,1,1,23041,1440.062
6.713227272033691,1,1,26236,1639.750
6.717231512069702,1,1,28692,1793.250
6.721235752105713,1,1,27400,1712.500
6.725236654281616,1,1,24144,1509.000
6.729226350784302,1,1,23059,1441.188
6.733230113983154,1,1,26150,1634.375
6.737231016159058,1,1,28664,1791.500
6.7412285804748535,1,1,27347,1709.188
6.745235204696655,1,1,24098,1506.125
6.749215602874756,1,1,23019,1438.688
6.753223419189453,1,1,26106,1631.625
6.757230281829834,1,1,28702,1793.875
6.761231899261475,1,1,27556,1722.250
6.765233755111694,1,1,24352,1522.000
6.769231081008911,1,1,23057,1441.062
6.7732274532318115,1,1,25894,1618.375
6.777228593826294,1,1,28516,1782.250
6.781198740005493,1,1,27463,1716.438
6.785197973251343,1,1,24282,1517.625
6.789194345474243,1,1,22944,1434.000
6.793193817138672,1,1,25795,1612.188
6.797191619873047,1,1,28510,1781.875
6.801190137863159,1,1,27547,1721.688
6.805196046829224,1,1,24409,1525.562
6.809187173843384,1,1,22924,1432.750
6.813187837600708,1,1,25649,1603.062
6.817192792892456,1,1,28402,1775.125
6.8211891651153564,1,1,27576,1723.500
6.825196027755737,1,1,24502,1531.375
6.8291778564453125,1,1,22924,1432.750
6.833181381225586,1,1,25600,1600.000
6.8371922969818115,1,1,28503,1781.438
6.841192722320557,1,1,27759,1734.938
6.845195770263672,1,1,24584,1536.500
6.84918737411499,1,1,22838,1427.375
6.85318660736084,1,1,25394,1587.125
6.8571937084198,1,1,28356,1772.250
6.861184358596802,1,1,27729,1733.062
6.865198135375977,1,1,24633,1539.562
6.86919093132019,1,1,22840,1427.500
6.873188257217407,1,1,25427,1589.188
6.877194404602051,1,1,28552,1784.500
6.881230115890503,1,1,28037,1752.312
6.885231971740723,1,1,24924,1557.750
6.8892223834991455,1,1,22951,1434.438
6.893223285675049,1,1,25318,1582.375
6.897477626800537,1,1,28434,1777.125
6.902489423751831,1,1,28024,1751.500
6.905358552932739,1,1,24922,1557.625
6.909258604049683,1,1,22859,1428.688
6.9132232666015625,1,1,25142,1571.375
6.917228698730469,1,1,28334,1770.875
6.921218633651733,1,1,28008,1750.500
6.925221681594849,1,1,24960,1560.000
6.92921781539917,1,1,22794,1424.625
6.933212041854858,1,1,24923,1557.688
6.937231540679932,1,1,28196,1762.250
6.941230058670044,1,1,27989,1749.312
6.9452409744262695,1,1,24950,1559.375
6.949224233627319,1,1,22759,1422.438
6.953226804733276,1,1,24825,1551.562
6.957225561141968,1,1,28109,1756.812
6.961239337921143,1,1,28104,1756.500
6.965234279632568,1,1,25229,1576.812
6.969228744506836,1,1,22915,1432.188
6.973222494125366,1,1,24811,1550.688
6.977229833602905,1,1,28179,1761.188
6.981346607208252,1,1,28202,1762.625
6.985200643539429,1,1,25239,1577.438
6.989188194274902,1,1,22805,1425.312
6.993188858032227,1,1,24655,1540.938
6.997184991836548,1,1,28106,1756.625
7.001185178756714,1,1,28272,1767.000
7.005186080932617,1,1,25396,1587.250
7.009188652038574,1,1,22829,1426.812
7.013188600540161,1,1,24476,1529.750
7.017195701599121,1,1,27912,1744.500
7.021191120147705,1,1,28209,1763.062
7.025196552276611,1,1,25466,1591.625
7.02918815612793,1,1,22911,1431.938
7.033190727233887,1,1,24475,1529.688
7.037198066711426,1,1,27929,1745.562
7.041184425354004,1,1,28289,1768.062
7.045196771621704,1,1,25537,1596.062
7.0548996925354,1,1,27879,1742.438
7.057208061218262,1,1,27879,1742.438
7.0611891746521,1,1,28344,1771.500
7.065195560455322,1,1,25611,1600.688
7.069188833236694,1,1,22877,1429.812
7.073193311691284,1,1,24183,1511.438
7.077193021774292,1,1,27740,1733.750
7.081187725067139,1,1,28465,1779.062
7.085193872451782,1,1,25878,1617.375
7.089178085327148,1,1,23064,1441.500
7.093173265457153,1,1,24139,1508.688
7.097192049026489,1,1,27621,1726.312
7.101184844970703,1,1,28286,1767.875
7.105200290679932,1,1,25725,1607.812
7.109192609786987,1,1,22962,1435.125
7.113184690475464,1,1,24052,1503.250
7.117187023162842,1,1,27610,1725.625
7.121184349060059,1,1,28430,1776.875
7.125190496444702,1,1,25899,1618.688
7.1291844844818115,1,1,23037,1439.812
7.13318395614624,1,1,23983,1498.938
7.137193918228149,1,1,27535,1720.938
7.141184091567993,1,1,28463,1778.938
7.145211458206177,1,1,26033,1627.062
7.149186611175537,1,1,23133,1445.812
7.153191328048706,1,1,23884,1492.750
7.157192707061768,1,1,27411,1713.188
7.161184310913086,1,1,28463,1778.938
7.165191173553467,1,1,26071,1629.438
7.169186115264893,1,1,23022,1438.875
7.173185586929321,1,1,23618,1476.125
7.1771814823150635,1,1,27149,1696.812
7.181185007095337,1,1,28397,1774.812
7.185311317443848,1,1,26174,1635.875
7.189228534698486,1,1,23172,1448.250
7.193223476409912,1,1,23717,1482.312
7.197228193283081,1,1,27317,1707.312
7.201226234436035,1,1,28638,1789.875
7.205229043960571,1,1,26377,1648.562
7.209224700927734,1,1,23239,1452.438
7.213223218917847,1,1,23544,1471.500
7.217222690582275,1,1,27042,1690.125
7.221222639083862,1,1,28429,1776.812
7.225235462188721,1,1,26277,1642.312
7.229222297668457,1,1,23263,1453.938
7.233222961425781,1,1,27084,1692.750
7.237222194671631,1,1,28554,1784.625
7.241226434707642,1,1,26378,1648.625
7.245223760604858,1,1,23241,1452.562
7.249209403991699,1,1,23384,1461.500
7.253206729888916,1,1,26914,1682.125
7.257223844528198,1,1,28513,1782.062
7.261223316192627,1,1,26434,1652.125
7.265231609344482,1,1,23252,1453.250
7.269222974777222,1,1,23246,1452.875
7.273224115371704,1,1,26791,1674.438
7.2772252559661865,1,1,28602,1787.625
7.281224012374878,1,1,26711,1669.438
7.285234689712524,1,1,23527,1470.438
7.289191484451294,1,1,23386,1461.625
7.293182611465454,1,1,26830,1676.875
7.297197103500366,1,1,28610,1788.125
7.301181077957153,1,1,26752,1672.000
7.305184364318848,1,1,23652,1478.250
7.309182167053223,1,1,23407,1462.938
7.313215494155884,1,1,26791,1674.438
7.3171937465667725,1,1,28684,1792.750
7.321176290512085,1,1,26903,1681.438
7.325184106826782,1,1,23703,1481.438
7.329440593719482,1,1,23311,1456.938
7.3333635330200195,1,1,26691,1668.188
7.337256669998169,1,1,28765,1797.812
7.341273069381714,1,1,27082,1692.625
7.345201730728149,1,1,23836,1489.750
7.349193334579468,1,1,23264,1454.000
7.353182315826416,1,1,26601,1662.562
7.35719108581543,1,1,28740,1796.250
7.361175775527954,1,1,27061,1691.312
7.365180253982544,1,1,23794,1487.125
7.369178533554077,1,1,23134,1445.875
7.373170614242554,1,1,26391,1649.438
7.377175807952881,1,1,28613,1788.312
7.381173610687256,1,1,27136,1696.000
7.3851892948150635,1,1,23960,1497.500
7.389183759689331,1,1,23233,1452.062
7.3931825160980225,1,1,26433,1652.062
7.397185325622559,1,1,28757,1797.312
7.401186466217041,1,1,27292,1705.750
7.405183553695679,1,1,23974,1498.375
7.409182071685791,1,1,23048,1440.500
7.413177967071533,1,1,26204,1637.750
7.417184591293335,1,1,28635,1789.688
7.421181678771973,1,1,27343,1708.938
7.4251909255981445,1,1,24116,1507.250
7.429183483123779,1,1,23029,1439.312
7.43318247795105,1,1,26069,1629.312
7.43718409538269,1,1,28589,1786.812
7.441179037094116,1,1,27393,1712.062
7.445184946060181,1,1,24260,1516.250
7.449182033538818,1,1,23090,1443.125
7.453179597854614,1,1,26049,1628.062
7.45717716217041,1,1,28621,1788.812
7.461181163787842,1,1,27468,1716.750
7.465190410614014,1,1,24273,1517.062
7.469184160232544,1,1,22985,1436.562
7.473183631896973,1,1,25935,1620.938
7.477181434631348,1,1,28664,1791.500
7.481181859970093,1,1,27640,1727.500
7.485264301300049,1,1,24375,1523.438
7.489225625991821,1,1,22910,1431.875
7.493218421936035,1,1,25718,1607.375
7.497210741043091,1,1,28537,1783.562
7.5012030601501465,1,1,27682,1730.125
7.505223989486694,1,1,24548,1534.250
7.509217023849487,1,1,23000,1437.500
7.513223886489868,1,1,25740,1608.750
7.5172200202941895,1,1,28588,1786.750
7.521220684051514,1,1,27716,1732.250
7.525226593017578,1,1,24537,1533.562
7.5292181968688965,1,1,22885,1430.312
7.533221006393433,1,1,25461,1591.312
7.537219524383545,1,1,28366,1772.875
7.541217088699341,1,1,27699,1731.188
7.545227527618408,1,1,24629,1539.312
7.549224615097046,1,1,22905,1431.562
7.553216218948364,1,1,25417,1588.562
7.5572168827056885,1,1,28399,1774.938
7.561218500137329,1,1,27851,1740.688
7.565227508544922,1,1,24750,1546.875
7.569216012954712,1,1,22866,1429.125
7.573213338851929,1,1,25204,1575.250
7.577219009399414,1,1,28176,1761.000
7.581214189529419,1,1,27728,1733.000
7.585243225097656,1,1,24751,1546.938
7.589184284210205,1,1,22872,1429.500
7.593178033828735,1,1,25243,1577.688
7.597175598144531,1,1,28383,1773.938
7.601170539855957,1,1,28056,1753.500
7.605177879333496,1,1,25011,1563.188
7.609181880950928,1,1,22924,1432.750
7.613176345825195,1,1,25161,1572.562
7.617176294326782,1,1,28325,1770.312
7.621174573898315,1,1,28001,1750.062
7.625185012817383,1,1,24967,1560.438
7.629181385040283,1,1,22778,1423.625
7.633182764053345,1,1,24928,1558.000
7.63718318939209,1,1,28205,1762.812
7.641174793243408,1,1,28000,1750.000
7.645195722579956,1,1,24998,1562.375
7.649182319641113,1,1,22778,1423.625
7.653176307678223,1,1,24811,1550.688
7.657174587249756,1,1,28112,1757.000
7.661165714263916,1,1,28100,1756.250
7.665178298950195,1,1,25178,1573.625
7.669180631637573,1,1,22874,1429.625
7.673179388046265,1,1,24826,1551.625
7.6771814823150635,1,1,28202,1762.625
7.681180238723755,1,1,28264,1766.500
7.685249328613281,1,1,25339,1583.688
7.689229249954224,1,1,22909,1431.812
7.693220376968384,1,1,24707,1544.188
7.697219371795654,1,1,28093,1755.812
7.7012176513671875,1,1,28226,1764.125
7.705226421356201,1,1,25376,1586.000
7.709216833114624,1,1,22890,1430.625
7.713218450546265,1,1,24530,1533.125
7.717218399047852,1,1,27952,1747.000
7.721218109130859,1,1,28211,1763.188
7.725221872329712,1,1,25479,1592.438
7.729218244552612,1,1,22954,1434.625
7.7332141399383545,1,1,24467,1529.188
7.73721718788147,1,1,27931,1745.688
7.741214752197266,1,1,28288,1768.000
7.745218753814697,1,1,25531,1595.688
7.74920392036438,1,1,22899,1431.188
7.753204584121704,1,1,24289,1518.062
7.757216453552246,1,1,27784,1736.500
7.761220932006836,1,1,28353,1772.062
7.7652223110198975,1,1,25749,1609.312
7.7692179679870605,1,1,23019,1438.688
7.773216009140015,1,1,24266,1516.625
7.777211904525757,1,1,27721,1732.562
7.78121542930603,1,1,28369,1773.062
7.785253524780273,1,1,25821,1613.812
7.789183855056763,1,1,23109,1444.312
7.793179035186768,1,1,24231,1514.438
7.7971837520599365,1,1,27739,1733.688
7.8011791706085205,1,1,28446,1777.875
7.805182456970215,1,1,25900,1618.750
7.809176921844482,1,1,23119,1444.938
7.813175439834595,1,1,24108,1506.750
7.817171812057495,1,1,27606,1725.375
7.821175813674927,1,1,28456,1778.500
7.825182914733887,1,1,25973,1623.312
7.829177379608154,1,1,23127,1445.438
7.833172559738159,1,1,24060,1503.750
7.837179183959961,1,1,27606,1725.375
7.841176509857178,1,1,26102,1631.375
7.845174074172974,1,1,23172,1448.250
7.84917426109314,1,1,23907,1494.188
7.853172540664673,1,1,27485,1717.812
7.8571717739105225,1,1,28563,1785.188
7.861174821853638,1,1,26202,1637.625
7.865182399749756,1,1,23220,1451.250
7.869171619415283,1,1,23820,1488.750
7.873176097869873,1,1,27364,1710.250
7.8771748542785645,1,1,28523,1782.688
7.881171941757202,1,1,26209,1638.062
7.885183334350586,1,1,23189,1449.312
7.889203786849976,1,1,23672,1479.500
7.893214464187622,1,1,27237,1702.312
7.897462606430054,1,1,28553,1784.562
7.901621341705322,1,1,26351,1646.938
7.9054131507873535,1,1,23329,1458.062
7.909284830093384,1,1,23717,1482.312
7.913224935531616,1,1,27250,1703.125
7.917214632034302,1,1,28616,1788.500
7.921214580535889,1,1,26413,1650.812
7.925221920013428,1,1,23315,1457.188
7.92922306060791,1,1,23543,1471.438
7.9332098960876465,1,1,27097,1693.562
7.937222719192505,1,1,28698,1793.625
7.941217422485352,1,1,26627,1664.188
7.9452245235443115,1,1,23429,1464.312
7.949201822280884,1,1,23428,1464.250
7.9532012939453125,1,1,26870,1679.375
7.9572155475616455,1,1,28515,1782.188
7.961247682571411,1,1,26519,1657.438
7.965293645858765,1,1,23351,1459.438
7.969331979751587,1,1,23308,1456.750
7.973234176635742,1,1,26824,1676.500
7.977210521697998,1,1,28597,1787.312
7.981204271316528,1,1,26678,1667.375
7.985219955444336,1,1,23533,1470.812
7.989328145980835,1,1,23384,1461.500
7.993184328079224,1,1,26810,1675.625
7.997191905975342,1,1,28670,1791.875
8.001168489456177,1,1,26803,1675.188
8.00517463684082,1,1,23593,1474.562
8.00918960571289,1,1,23231,1451.938
8.013176918029785,1,1,26635,1664.688
8.017171859741211,1,1,28620,1788.750
8.021172761917114,1,1,26836,1677.250
8.025184869766235,1,1,23597,1474.812
8.029163837432861,1,1,23129,1445.562
8.033160924911499,1,1,26521,1657.562
8.037184715270996,1,1,28643,1790.188
8.041180610656738,1,1,26993,1687.062
8.04517912864685,1,1,23746,1484.125
8.049174070358276,1,1,23175,1448.438
8.058966636657715,1,1,28636,1789.750
8.06121039390564,1,1,27046,1690.375
8.065205574035645,1,1,23782,1486.375
8.069197416305542,1,1,23036,1439.750
8.073179483413696,1,1,26318,1644.875
8.077176094055176,1,1,28604,1787.750
8.081173658370972,1,1,27114,1694.625
8.08518385887146,1,1,23856,1491.000
8.089215278625488,1,1,22992,1437.000
8.093170881271362,1,1,26234,1639.625
8.097170352935791,1,1,28619,1788.688
8.10117220878601,1,1,27175,1698.438
8.105182886123657,1,1,23860,1491.250
8.10916018486023,1,1,22891,1430.688
8.113157033920288,1,1,26033,1627.062
8.117172479629517,1,1,28468,1779.250
8.121174097061157,1,1,27144,1696.500
8.125176429748535,1,1,23948,1496.750
8.12917160987854,1,1,22943,1433.938
8.133169889450073,1,1,26049,1628.062
8.137172937393188,1,1,28562,1785.125
8.141171216964722,1,1,27324,1707.750
8.145197868347168,1,1,24074,1504.625
8.149171352386475,1,1,22841,1427.562
8.15317678451538,1,1,25872,1617.000
8.157172918319702,1,1,28541,1783.812
8.161170721054077,1,1,27451,1715.688
8.1651771068573,1,1,24251,1515.688
8.169173240661621,1,1,22922,1432.625
8.1731698513031,1,1,25796,1612.250
8.177170515060425,1,1,28460,1778.750
8.181170463562012,1,1,27399,1712.438
8.18519115447998,1,1,24249,1515.562
8.189173221588135,1,1,22903,1431.438
8.193220376968384,1,1,25743,1608.938
8.197213888168335,1,1,28522,1782.625
8.201207637786865,1,1,27630,1726.875
8.205219030380249,1,1,24504,1531.500
8.209210872650146,1,1,23022,1438.875
8.213207006454468,1,1,25725,1607.812
8.217205286026001,1,1,28572,1785.750
8.221208095550537,1,1,27737,1733.562
8.225219488143921,1,1,24562,1535.125
8.229209423065186,1,1,22926,1432.875
8.233209133148193,1,1,25568,1598.000
8.237210512161255,1,1,28461,1778.812
8.241214036941528,1,1,27720,1732.500
8.245211839675903,1,1,24578,1536.125
8.24919605255127,1,1,22800,1425.000
8.25319504737854,1,1,25358,1584.875
8.257211208343506,1,1,28445,1777.812
8.261213779449463,1,1,27882,1742.625
8.2652108669281,1,1,24749,1546.812
8.2691969871521,1,1,22864,1429.000
8.273195028305054,1,1,25318,1582.375
8.277210712432861,1,1,28410,1775.625
8.28121018409729,1,1,27942,1746.375
8.285211324691772,1,1,24934,1558.375
8.289207458496094,1,1,22987,1436.688
8.293214559555054,1,1,25279,1579.938
8.297181606292725,1,1,28378,1773.625
8.301172018051147,1,1,27944,1746.500
8.305176019668579,1,1,24865,1554.062
8.309169292449951,1,1,22819,1426.188
8.313172578811646,1,1,25044,1565.250
8.317172050476074,1,1,28238,1764.875
8.321173906326294,1,1,28008,1750.500
8.32520318031311,1,1,25084,1567.750
8.329161643981934,1,1,22955,1434.688
8.33339786529541,1,1,25057,1566.062
8.337576627731323,1,1,28316,1769.750
8.341266632080078,1,1,28125,1757.812
8.345174551010132,1,1,25141,1571.312
8.349220752716064,1,1,22839,1427.438
8.353226900100708,1,1,24811,1550.688
8.35731053352356,1,1,28107,1756.688
8.361191511154175,1,1,28031,1751.938
8.365260601043701,1,1,25099,1568.688
8.369173765182495,1,1,22715,1419.688
8.373354434967041,1,1,24573,1535.812
8.377282619476318,1,1,27984,1749.000
