Timestamp,LO_plus,LO_minus,Raw_ADC,Voltage_mV
0.010987997055053711,0,0,25653,1603.312
0.012198925018310547,0,0,25653,1603.312
0.013334989547729492,0,0,25631,1601.938
0.017198562622070312,0,0,25609,1600.562
0.02117323875427246,0,0,25585,1599.062
0.025172710418701172,0,0,25565,1597.812
0.029168367385864258,0,0,25552,1597.000
0.033170461654663086,0,0,25541,1596.312
0.03716707229614258,0,0,25527,1595.438
0.0411679744720459,0,0,25510,1594.375
0.04517555236816406,0,0,25497,1593.562
0.04917621612548828,0,0,25490,1593.125
0.053177595138549805,0,0,25485,1592.812
0.057173967361450195,0,0,25475,1592.188
0.061174631118774414,0,0,25463,1591.438
0.06517696380615234,0,0,25455,1590.938
0.06917452812194824,0,0,25451,1590.688
0.07317519187927246,0,0,25448,1590.500
0.07717370986938477,0,0,25442,1590.125
0.08117485046386719,0,0,25432,1589.500
0.08517622947692871,0,0,25425,1589.062
0.08917450904846191,0,0,25423,1588.938
0.09317469596862793,0,0,25423,1588.938
0.09717345237731934,0,0,25419,1588.688
0.10117411613464355,0,0,25410,1588.125
0.10517740249633789,0,0,25405,1587.812
0.10918354988098145,0,0,25404,1587.750
0.11317634582519531,0,0,25404,1587.750
0.1171729564666748,0,0,25401,1587.562
0.12117481231689453,0,0,25393,1587.062
0.12518095970153809,0,0,25388,1586.750
0.12917399406433105,0,0,25388,1586.750
0.13317441940307617,0,0,25390,1586.875
0.13717246055603027,0,0,25387,1586.688
0.14118003845214844,0,0,25380,1586.250
0.14550399780273438,0,0,25376,1586.000
0.14926981925964355,0,0,25375,1585.938
0.15318894386291504,0,0,25378,1586.125
0.15717554092407227,0,0,25375,1585.938
0.16117525100708008,0,0,25369,1585.562
0.1651744842529297,0,0,25365,1585.312
0.1691727638244629,0,0,25365,1585.312
0.17317438125610352,0,0,25368,1585.500
0.17717194557189941,0,0,25366,1585.375
0.18117356300354004,0,0,25359,1584.938
0.18517422676086426,0,0,25355,1584.688
0.18917393684387207,0,0,25355,1584.688
0.1931750774383545,0,0,25358,1584.875
0.1971731185913086,0,0,25357,1584.812
0.20122694969177246,0,0,25351,1584.438
0.20528554916381836,0,0,25346,1584.125
0.20920848846435547,0,0,25346,1584.125
0.21317577362060547,0,0,25349,1584.312
0.21716594696044922,0,0,25348,1584.250
0.22116661071777344,0,0,25342,1583.875
0.2251749038696289,0,0,25338,1583.625
0.2291731834411621,0,0,25338,1583.625
0.23319196701049805,0,0,25341,1583.812
0.2371656894683838,0,0,25340,1583.750
0.241166353225708,0,0,25335,1583.438
0.24518108367919922,0,0,25330,1583.125
0.24917221069335938,0,0,25330,1583.125
0.2531766891479492,0,0,25334,1583.375
0.2571718692779541,0,0,25333,1583.312
0.26117968559265137,0,0,25327,1582.938
0.2651710510253906,0,0,25323,1582.688
0.2691690921783447,0,0,25323,1582.688
0.27317237854003906,0,0,25326,1582.875
0.27717041969299316,0,0,25326,1582.875
0.2811713218688965,0,0,25320,1582.500
0.2851734161376953,0,0,25316,1582.250
0.2891700267791748,0,0,25316,1582.250
0.29317378997802734,0,0,25319,1582.438
0.29717183113098145,0,0,25318,1582.375
0.30117273330688477,0,0,25313,1582.062
0.3051745891571045,0,0,25310,1581.875
0.3091726303100586,0,0,25310,1581.875
0.3131744861602783,0,0,25313,1582.062
0.317171573638916,0,0,25312,1582.000
0.32117223739624023,0,0,25308,1581.750
0.32520389556884766,0,0,25303,1581.438
0.3292384147644043,0,0,25303,1581.438
0.3332021236419678,0,0,25307,1581.688
0.3371701240539551,0,0,25306,1581.625
0.3411707878112793,0,0,25302,1581.375
0.3451693058013916,0,0,25297,1581.062
0.3491785526275635,0,0,25297,1581.062
0.35317301750183105,0,0,25301,1581.312
0.35716915130615234,0,0,25301,1581.312
0.36116743087768555,0,0,25297,1581.062
0.3651707172393799,0,0,25291,1580.688
0.369168758392334,0,0,25291,1580.688
0.3731706142425537,0,0,25295,1580.938
0.3771686553955078,0,0,25295,1580.938
0.38116908073425293,0,0,25291,1580.688
0.38516902923583984,0,0,25286,1580.375
0.3891720771789551,0,0,25286,1580.375
0.39316773414611816,0,0,25289,1580.562
0.39716196060180664,0,0,25289,1580.562
0.40116119384765625,0,0,25285,1580.312
0.4051692485809326,0,0,25281,1580.062
0.40916872024536133,0,0,25280,1580.000
0.41316676139831543,0,0,25284,1580.250
0.41716814041137695,0,0,25284,1580.250
0.4212508201599121,0,0,25281,1580.062
0.4252328872680664,0,0,25277,1579.812
0.42917656898498535,0,0,25276,1579.750
0.43317079544067383,0,0,25279,1579.938
0.4371669292449951,0,0,25279,1579.938
0.44116711616516113,0,0,25276,1579.750
0.44516825675964355,0,0,25271,1579.438
0.44916772842407227,0,0,25271,1579.438
0.4531669616699219,0,0,25274,1579.625
0.4571657180786133,0,0,25274,1579.625
0.4611690044403076,0,0,25271,1579.438
0.46516847610473633,0,0,25266,1579.125
0.46916937828063965,0,0,25265,1579.062
0.4731738567352295,0,0,25269,1579.312
0.47716832160949707,0,0,25270,1579.375
0.4811680316925049,0,0,25267,1579.188
0.4851686954498291,0,0,25262,1578.875
0.4891836643218994,0,0,25261,1578.812
0.49316906929016113,0,0,25265,1579.062
0.49716711044311523,0,0,25266,1579.125
0.5011680126190186,0,0,25263,1578.938
0.505169153213501,0,0,25258,1578.625
0.509169340133667,0,0,25257,1578.562
0.5131702423095703,0,0,25261,1578.812
0.5171685218811035,0,0,25262,1578.875
0.5211668014526367,0,0,25258,1578.625
0.525165319442749,0,0,25253,1578.312
0.5291671752929688,0,0,25253,1578.312
0.533226490020752,0,0,25256,1578.500
0.5372357368469238,0,0,25258,1578.625
0.5412337779998779,0,0,25255,1578.438
0.5452351570129395,0,0,25250,1578.125
0.5492327213287354,0,0,25252,1578.250
0.5532352924346924,0,0,25254,1578.375
0.5572309494018555,0,0,25252,1578.250
0.5612311363220215,0,0,25245,1577.812
0.5652298927307129,0,0,25245,1577.812
0.5692338943481445,0,0,25248,1578.000
0.5732312202453613,0,0,25249,1578.062
0.5772311687469482,0,0,25248,1578.000
0.5812320709228516,0,0,25242,1577.625
0.5852344036102295,0,0,25241,1577.562
0.5892317295074463,0,0,25244,1577.750
0.5932338237762451,0,0,25247,1577.938
0.5972332954406738,0,0,25244,1577.750
0.601231575012207,0,0,25239,1577.438
0.605229377746582,0,0,25238,1577.375
0.6092302799224854,0,0,25241,1577.562
0.6132314205169678,0,0,25243,1577.688
0.6172306537628174,0,0,25241,1577.562
0.6212308406829834,0,0,25236,1577.250
0.6252317428588867,0,0,25235,1577.188
0.6292331218719482,0,0,25238,1577.375
0.6332828998565674,0,0,25240,1577.500
0.6373031139373779,0,0,25238,1577.375
0.6413521766662598,0,0,25233,1577.062
0.6452960968017578,0,0,25231,1576.938
0.6492960453033447,0,0,25234,1577.125
0.6532979011535645,0,0,25236,1577.250
0.6572983264923096,0,0,25235,1577.188
0.6613361835479736,0,0,25229,1576.812
0.6652956008911133,0,0,25228,1576.750
0.6692957878112793,0,0,25231,1576.938
0.673302173614502,0,0,25233,1577.062
0.6772968769073486,0,0,25232,1577.000
0.6813244819641113,0,0,25226,1576.625
0.6852960586547852,0,0,25225,1576.562
0.6892955303192139,0,0,25228,1576.750
0.6932961940765381,0,0,25231,1576.938
0.6972968578338623,0,0,25229,1576.812
0.701331377029419,0,0,25224,1576.500
0.7052879333496094,0,0,25222,1576.375
0.7092821598052979,0,0,25225,1576.562
0.7133004665374756,0,0,25227,1576.688
0.7172958850860596,0,0,25226,1576.625
0.7213256359100342,0,0,25221,1576.312
0.7252919673919678,0,0,25219,1576.188
0.7292943000793457,0,0,25222,1576.375
0.733295202255249,0,0,25225,1576.562
0.7372984886169434,0,0,25224,1576.500
0.7412784099578857,0,0,25219,1576.188
0.745262622833252,0,0,25217,1576.062
0.7492620944976807,0,0,25219,1576.188
0.753258228302002,0,0,25223,1576.438
0.7572488784790039,0,0,25221,1576.312
0.7612564563751221,0,0,25216,1576.000
0.7652826309204102,0,0,25215,1575.938
0.769256591796875,0,0,25217,1576.062
0.7732579708099365,0,0,25220,1576.250
0.777256965637207,0,0,25219,1576.188
0.7812573909759521,0,0,25214,1575.875
0.7852818965911865,0,0,25212,1575.750
0.7892587184906006,0,0,25214,1575.875
0.7932596206665039,0,0,25217,1576.062
0.7972581386566162,0,0,25217,1576.062
0.8012571334838867,0,0,25212,1575.750
0.8052785396575928,0,0,25210,1575.625
0.8092570304870605,0,0,25212,1575.750
0.8132579326629639,0,0,25215,1575.938
0.8172562122344971,0,0,25215,1575.938
0.821256160736084,0,0,25210,1575.625
0.8252804279327393,0,0,25208,1575.500
0.8292596340179443,0,0,25210,1575.625
0.8332614898681641,0,0,25213,1575.812
0.8373429775238037,0,0,25212,1575.750
0.8413434028625488,0,0,25208,1575.500
0.8452935218811035,0,0,25205,1575.312
0.8492927551269531,0,0,25207,1575.438
0.853294849395752,0,0,25211,1575.688
0.8572947978973389,0,0,25211,1575.688
0.8613259792327881,0,0,25206,1575.375
0.8652908802032471,0,0,25203,1575.188
0.8692910671234131,0,0,25205,1575.312
0.8732903003692627,0,0,25209,1575.562
0.8772802352905273,0,0,25209,1575.562
0.8813154697418213,0,0,25204,1575.250
0.8852922916412354,0,0,25201,1575.062
0.8892917633056641,0,0,25203,1575.188
0.8932929039001465,0,0,25207,1575.438
0.8972921371459961,0,0,25207,1575.438
0.9013211727142334,0,0,25202,1575.125
0.9052915573120117,0,0,25199,1574.938
0.9092917442321777,0,0,25201,1575.062
0.9132919311523438,0,0,25205,1575.312
0.9172894954681396,0,0,25205,1575.312
0.9213194847106934,0,0,25200,1575.000
0.9252889156341553,0,0,25198,1574.875
0.9292876720428467,0,0,25199,1574.938
0.9332900047302246,0,0,25203,1575.188
0.9372954368591309,0,0,25203,1575.188
0.9412586688995361,0,0,25199,1574.938
0.9452555179595947,0,0,25196,1574.750
0.9492566585540771,0,0,25197,1574.812
0.9532525539398193,0,0,25202,1575.125
0.9572427272796631,0,0,25202,1575.125
0.9612503051757812,0,0,25197,1574.812
0.9652543067932129,0,0,25194,1574.625
0.9692556858062744,0,0,25196,1574.750
0.9732511043548584,0,0,25199,1574.938
0.9772434234619141,0,0,25200,1575.000
0.9812443256378174,0,0,25196,1574.750
0.9852526187896729,0,0,25193,1574.562
0.9892539978027344,0,0,25194,1574.625
0.9932591915130615,0,0,25198,1574.875
0.9972758293151855,0,0,25198,1574.875
1.0012528896331787,0,0,25194,1574.625
1.0108850002288818,0,0,25197,1574.812
1.013310432434082,0,0,25197,1574.812
1.0172507762908936,0,0,25196,1574.750
1.021244764328003,0,0,25193,1574.562
1.0252459049224854,0,0,25190,1574.375
1.0292444229125977,0,0,25191,1574.438
1.03324294090271,0,0,25195,1574.688
1.037259578704834,0,0,25196,1574.750
1.0412414073944092,0,0,25191,1574.438
1.0452537536621094,0,0,25188,1574.250
1.0492522716522217,0,0,25189,1574.312
1.0532517433166504,0,0,25194,1574.625
1.057251214981079,0,0,25194,1574.625
1.061253309249878,0,0,25190,1574.375
1.065251350402832,0,0,25187,1574.188
1.0692508220672607,0,0,25188,1574.250
1.0732555389404297,0,0,25192,1574.500
1.0772535800933838,0,0,25193,1574.562
1.0812511444091797,0,0,25189,1574.312
1.0852746963500977,0,0,25185,1574.062
1.0892510414123535,0,0,25190,1574.375
1.0932555198669434,0,0,25191,1574.438
1.0972516536712646,0,0,25188,1574.250
1.101250171661377,0,0,25184,1574.000
1.105250597000122,0,0,25185,1574.062
1.1092524528503418,0,0,25190,1574.375
1.1132540702819824,0,0,25190,1574.375
1.1172499656677246,0,0,25187,1574.188
1.1212503910064697,0,0,25183,1573.938
1.1252508163452148,0,0,25184,1574.000
1.1292510032653809,0,0,25187,1574.188
1.1332502365112305,0,0,25190,1574.375
1.1373610496520996,0,0,25186,1574.125
1.1413261890411377,0,0,25182,1573.875
1.145620584487915,0,0,25182,1573.875
1.1494810581207275,0,0,25187,1574.188
1.1533136367797852,0,0,25188,1574.250
1.157289743423462,0,0,25186,1574.125
1.1613342761993408,0,0,25181,1573.812
1.1652934551239014,0,0,25181,1573.812
1.1692876815795898,0,0,25185,1574.062
1.1732912063598633,0,0,25187,1574.188
1.1772880554199219,0,0,25185,1574.062
1.1813173294067383,0,0,25180,1573.750
1.1852917671203613,0,0,25180,1573.750
1.1892857551574707,0,0,25184,1574.000
1.1932923793792725,0,0,25186,1574.125
1.1972894668579102,0,0,25183,1573.938
1.2013216018676758,0,0,25178,1573.625
1.205277442932129,0,0,25178,1573.625
1.2092924118041992,0,0,25184,1574.000
1.2132899761199951,0,0,25185,1574.062
1.2172882556915283,0,0,25183,1573.938
1.2213184833526611,0,0,25178,1573.625
1.2252888679504395,0,0,25178,1573.625
1.2292909622192383,0,0,25182,1573.875
1.2332870960235596,0,0,25184,1574.000
1.237365961074829,0,0,25181,1573.812
1.2412550449371338,0,0,25177,1573.562
1.2452495098114014,0,0,25177,1573.562
1.249253273010254,0,0,25181,1573.812
1.2532601356506348,0,0,25183,1573.938
1.2572519779205322,0,0,25182,1573.875
1.2612495422363281,0,0,25176,1573.500
1.2652463912963867,0,0,25176,1573.500
1.269239902496338,0,0,25180,1573.750
1.2732527256011963,0,0,25182,1573.875
1.2772481441497803,0,0,25180,1573.750
1.281249761581421,0,0,25176,1573.500
1.2852487564086914,0,0,25175,1573.438
1.2892494201660156,0,0,25179,1573.688
1.2932543754577637,0,0,25182,1573.875
1.297250747680664,0,0,25179,1573.688
1.3012490272521973,0,0,25175,1573.438
1.3052492141723633,0,0,25174,1573.375
1.3092494010925293,0,0,25178,1573.625
1.3132350444793701,0,0,25181,1573.812
1.3171844482421875,0,0,25179,1573.688
1.3211829662322998,0,0,25174,1573.375
1.3251824378967285,0,0,25173,1573.312
1.3292381763458252,0,0,25177,1573.562
1.333195686340332,0,0,25180,1573.750
1.337291955947876,0,0,25178,1573.625
1.3412280082702637,0,0,25173,1573.312
1.3452224731445312,0,0,25173,1573.312
1.3492679595947266,0,0,25176,1573.500
1.3532392978668213,0,0,25179,1573.688
1.357222318649292,0,0,25178,1573.625
1.3612196445465088,0,0,25172,1573.250
1.3652396202087402,0,0,25172,1573.250
1.3693296909332275,0,0,25176,1573.500
1.3733878135681152,0,0,25179,1573.688
1.3773643970489502,0,0,25177,1573.562
1.3812408447265625,0,0,25172,1573.250
1.3852429389953613,0,0,25171,1573.188
1.3892707824707031,0,0,25174,1573.375
1.3932545185089111,0,0,25177,1573.562
1.3972887992858887,0,0,25176,1573.500
1.4012336730957031,0,0,25172,1573.250
1.4052212238311768,0,0,25170,1573.125
1.4092636108398438,0,0,25177,1573.562
1.4132301807403564,0,0,25176,1573.500
1.4172275066375732,0,0,25171,1573.188
1.4212210178375244,0,0,25170,1573.125
1.4252326488494873,0,0,25173,1573.312
1.4292631149291992,0,0,25176,1573.500
1.433225393295288,0,0,25176,1573.500
1.4373221397399902,0,0,25170,1573.125
1.4411897659301758,0,0,25169,1573.062
1.4451854228973389,0,0,25172,1573.250
1.4492247104644775,0,0,25175,1573.438
1.4531869888305664,0,0,25175,1573.438
1.4571855068206787,0,0,25170,1573.125
1.4611823558807373,0,0,25169,1573.062
1.465186595916748,0,0,25171,1573.188
1.4692258834838867,0,0,25175,1573.438
1.4731874465942383,0,0,25175,1573.438
1.4771833419799805,0,0,25169,1573.062
1.4811832904815674,0,0,25168,1573.000
1.4851834774017334,0,0,25171,1573.188
1.4892292022705078,0,0,25174,1573.375
1.493187427520752,0,0,25174,1573.375
1.4971818923950195,0,0,25169,1573.062
1.5011823177337646,0,0,25167,1572.938
1.505183219909668,0,0,25170,1573.125
1.509223461151123,0,0,25174,1573.375
1.5131826400756836,0,0,25174,1573.375
1.517181634902954,0,0,25169,1573.062
1.521183967590332,0,0,25166,1572.875
1.5251848697662354,0,0,25169,1573.062
1.5292253494262695,0,0,25173,1573.312
1.5331871509552002,0,0,25174,1573.375
1.537271499633789,0,0,25168,1573.000
1.5412232875823975,0,0,25166,1572.875
1.5452215671539307,0,0,25169,1573.062
1.5492620468139648,0,0,25173,1573.312
1.5532262325286865,0,0,25173,1573.312
1.5572187900543213,0,0,25168,1573.000
1.561218500137329,0,0,25166,1572.875
1.565220594406128,0,0,25168,1573.000
1.5692620277404785,0,0,25172,1573.250
1.5732250213623047,0,0,25168,1573.000
1.5772168636322021,0,0,25165,1572.812
1.5812182426452637,0,0,25167,1572.938
1.5852186679840088,0,0,25172,1573.250
1.5892620086669922,0,0,25172,1573.250
1.5932230949401855,0,0,25168,1573.000
1.5972182750701904,0,0,25165,1572.812
1.6012184619903564,0,0,25167,1572.938
1.6052160263061523,0,0,25171,1573.188
1.6092605590820312,0,0,25171,1573.188
1.6132259368896484,0,0,25167,1572.938
1.617217779159546,0,0,25165,1572.812
1.621217966079712,0,0,25167,1572.938
1.6252171993255615,0,0,25171,1573.188
1.6292591094970703,0,0,25171,1573.188
1.633223056793213,0,0,25167,1572.938
1.637221336364746,0,0,25164,1572.750
1.6411840915679932,0,0,25166,1572.875
1.645183801651001,0,0,25170,1573.125
1.6492235660552979,0,0,25171,1573.188
1.6531836986541748,0,0,25167,1572.938
1.6571791172027588,0,0,25164,1572.750
1.661179542541504,0,0,25165,1572.812
1.66518235206604,0,0,25170,1573.125
1.6692242622375488,0,0,25171,1573.188
1.673182725906372,0,0,25167,1572.938
1.6771767139434814,0,0,25164,1572.750
1.6811792850494385,0,0,25165,1572.812
1.6851811408996582,0,0,25170,1573.125
1.6892235279083252,0,0,25170,1573.125
1.6931812763214111,0,0,25167,1572.938
1.6971800327301025,0,0,25163,1572.688
1.701179027557373,0,0,25164,1572.750
1.7051784992218018,0,0,25169,1573.062
1.709221363067627,0,0,25170,1573.125
1.713181495666504,0,0,25166,1572.875
1.717179536819458,0,0,25163,1572.688
1.7211799621582031,0,0,25164,1572.750
1.72517728805542,0,0,25169,1573.062
1.7292239665985107,0,0,25170,1573.125
1.7331807613372803,0,0,25166,1572.875
1.7372655868530273,0,0,25163,1572.688
1.741222620010376,0,0,25168,1573.000
1.7452220916748047,0,0,25169,1573.062
1.7492611408233643,0,0,25165,1572.812
1.7532224655151367,0,0,25163,1572.688
1.7572169303894043,0,0,25163,1572.688
1.7612168788909912,0,0,25168,1573.000
1.765213966369629,0,0,25168,1573.000
1.7692604064941406,0,0,25165,1572.812
1.7732160091400146,0,0,25162,1572.625
1.77720308303833,0,0,25163,1572.688
1.7812106609344482,0,0,25168,1573.000
1.7852134704589844,0,0,25169,1573.062
1.7892584800720215,0,0,25166,1572.875
1.793220043182373,0,0,25161,1572.562
1.7972159385681152,0,0,25162,1572.625
1.8012161254882812,0,0,25167,1572.938
1.8052139282226562,0,0,25168,1573.000
1.8092551231384277,0,0,25165,1572.812
1.8132209777832031,0,0,25161,1572.562
1.8172156810760498,0,0,25162,1572.625
1.821213960647583,0,0,25166,1572.875
1.8252182006835938,0,0,25168,1573.000
1.8292598724365234,0,0,25165,1572.812
1.8332257270812988,0,0,25161,1572.562
1.837221622467041,0,0,25161,1572.562
1.8411848545074463,0,0,25166,1572.875
1.8451781272888184,0,0,25167,1572.938
1.849219799041748,0,0,25165,1572.812
1.8531827926635742,0,0,25161,1572.562
1.8571782112121582,0,0,25161,1572.562
1.8611788749694824,0,0,25165,1572.812
1.8651769161224365,0,0,25167,1572.938
1.86922287940979,0,0,25165,1572.812
1.8731818199157715,0,0,25161,1572.562
1.87717604637146,0,0,25161,1572.562
1.8811757564544678,0,0,25165,1572.812
1.885178565979004,0,0,25167,1572.938
1.8892192840576172,0,0,25165,1572.812
1.8931801319122314,0,0,25160,1572.500
1.8971786499023438,0,0,25160,1572.500
1.9011752605438232,0,0,25165,1572.812
1.9051878452301025,0,0,25164,1572.750
1.9092204570770264,0,0,25160,1572.500
1.9131829738616943,0,0,25160,1572.500
1.9171760082244873,0,0,25165,1572.812
1.9211757183074951,0,0,25166,1572.875
1.9251768589019775,0,0,25165,1572.812
1.9292216300964355,0,0,25160,1572.500
1.9331810474395752,0,0,25160,1572.500
1.937260389328003,0,0,25164,1572.750
1.9412195682525635,0,0,25166,1572.875
1.9452118873596191,0,0,25164,1572.750
1.94925856590271,0,0,25160,1572.500
1.9532084465026855,0,0,25160,1572.500
1.957200527191162,0,0,25163,1572.688
1.9612095355987549,0,0,25166,1572.875
1.9652137756347656,0,0,25164,1572.750
1.9692542552947998,0,0,25159,1572.438
1.973219871520996,0,0,25159,1572.438
1.97721266746521,0,0,25163,1572.688
1.9812121391296387,0,0,25166,1572.875
1.9852099418640137,0,0,25164,1572.750
1.9892537593841553,0,0,25159,1572.438
1.993213415145874,0,0,25159,1572.438
1.9972014427185059,0,0,25163,1572.688
2.0012006759643555,0,0,25165,1572.812
2.0052120685577393,0,0,25164,1572.750
2.015746831893921,0,0,25163,1572.688
2.01728892326355,0,0,25163,1572.688
2.0212275981903076,0,0,25164,1572.750
2.025214195251465,0,0,25164,1572.750
2.029259204864502,0,0,25159,1572.438
2.0332233905792236,0,0,25158,1572.375
2.0373501777648926,0,0,25162,1572.625
2.0411808490753174,0,0,25165,1572.812
2.0451765060424805,0,0,25164,1572.750
2.049217462539673,0,0,25158,1572.375
2.0531811714172363,0,0,25158,1572.375
2.05717396736145,0,0,25162,1572.625
2.0611729621887207,0,0,25165,1572.812
2.0651731491088867,0,0,25164,1572.750
2.0692172050476074,0,0,25158,1572.375
2.0731799602508545,0,0,25161,1572.562
2.0771737098693848,0,0,25165,1572.812
2.08117413520813,0,0,25164,1572.750
2.085174560546875,0,0,25159,1572.438
2.089216709136963,0,0,25158,1572.375
2.0931804180145264,0,0,25161,1572.562
2.0971732139587402,0,0,25165,1572.812
2.1011838912963867,0,0,25164,1572.750
2.1051738262176514,0,0,25158,1572.375
2.10921573638916,0,0,25157,1572.312
2.1131787300109863,0,0,25161,1572.562
2.1171727180480957,0,0,25164,1572.750
2.121173143386841,0,0,25164,1572.750
2.1251752376556396,0,0,25158,1572.375
2.129215717315674,0,0,25158,1572.375
2.1331794261932373,0,0,25160,1572.500
2.137253999710083,0,0,25164,1572.750
2.141216516494751,0,0,25163,1572.688
2.1454906463623047,0,0,25159,1572.438
2.149437665939331,0,0,25157,1572.312
2.1532440185546875,0,0,25160,1572.500
2.1572134494781494,0,0,25164,1572.750
2.1612095832824707,0,0,25163,1572.688
2.165210247039795,0,0,25158,1572.375
2.169250726699829,0,0,25157,1572.312
2.173215627670288,0,0,25160,1572.500
2.177208662033081,0,0,25163,1572.688
2.1812078952789307,0,0,25163,1572.688
2.1852104663848877,0,0,25159,1572.438
2.189253091812134,0,0,25157,1572.312
2.1932179927825928,0,0,25159,1572.438
2.197211503982544,0,0,25163,1572.688
2.201213836669922,0,0,25163,1572.688
2.205203056335449,0,0,25158,1572.375
2.2092409133911133,0,0,25157,1572.312
2.2132365703582764,0,0,25159,1572.438
2.2171976566314697,0,0,25163,1572.688
2.2211992740631104,0,0,25163,1572.688
2.2252113819122314,0,0,25158,1572.375
2.2292532920837402,0,0,25159,1572.438
2.233215570449829,0,0,25163,1572.688
2.237304925918579,0,0,25163,1572.688
2.241180181503296,0,0,25159,1572.438
2.2451717853546143,0,0,25156,1572.250
2.249215602874756,0,0,25159,1572.438
2.2531790733337402,0,0,25163,1572.688
2.257173776626587,0,0,25163,1572.688
2.261174201965332,0,0,25158,1572.375
2.2651748657226562,0,0,25156,1572.250
2.2692179679870605,0,0,25158,1572.375
2.2731735706329346,0,0,25163,1572.688
2.277172803878784,0,0,25163,1572.688
2.2811739444732666,0,0,25158,1572.375
2.2851648330688477,0,0,25156,1572.250
2.2892043590545654,0,0,25158,1572.375
2.293212413787842,0,0,25163,1572.688
2.297173261642456,0,0,25163,1572.688
2.3011715412139893,0,0,25158,1572.375
2.3051695823669434,0,0,25156,1572.250
2.3092145919799805,0,0,25158,1572.375
2.3131814002990723,0,0,25162,1572.625
2.317181348800659,0,0,25163,1572.688
2.3211781978607178,0,0,25158,1572.375
2.325179100036621,0,0,25156,1572.250
2.3292267322540283,0,0,25157,1572.312
2.3331923484802246,0,0,25162,1572.625
2.3372926712036133,0,0,25163,1572.688
2.3412232398986816,0,0,25158,1572.375
2.3452236652374268,0,0,25156,1572.250
2.349255084991455,0,0,25157,1572.312
2.3532235622406006,0,0,25162,1572.625
2.357218027114868,0,0,25163,1572.688
2.3612186908721924,0,0,25158,1572.375
2.3652195930480957,0,0,25156,1572.250
2.3692548274993896,0,0,25157,1572.312
2.373225688934326,0,0,25161,1572.562
2.3772175312042236,0,0,25162,1572.625
2.3812177181243896,0,0,25158,1572.375
2.3852181434631348,0,0,25156,1572.250
2.389254093170166,0,0,25157,1572.312
2.393218994140625,0,0,25161,1572.562
2.397221088409424,0,0,25162,1572.625
2.401230573654175,0,0,25159,1572.438
2.405215263366699,0,0,25157,1572.312
2.409254550933838,0,0,25161,1572.562
2.413224697113037,0,0,25162,1572.625
2.4172184467315674,0,0,25159,1572.438
2.4212217330932617,0,0,25156,1572.250
2.4252142906188965,0,0,25157,1572.312
2.4292562007904053,0,0,25162,1572.625
2.4332187175750732,0,0,25162,1572.625
2.4372236728668213,0,0,25159,1572.438
2.441188097000122,0,0,25155,1572.188
2.4451844692230225,0,0,25156,1572.250
2.449218511581421,0,0,25161,1572.562
2.4531803131103516,0,0,25162,1572.625
2.4571683406829834,0,0,25159,1572.438
2.4611756801605225,0,0,25156,1572.250
2.465178966522217,0,0,25156,1572.250
2.4692187309265137,0,0,25161,1572.562
2.4731786251068115,0,0,25162,1572.625
2.4771673679351807,0,0,25159,1572.438
2.4811670780181885,0,0,25155,1572.188
2.4851796627044678,0,0,25156,1572.250
2.4892168045043945,0,0,25161,1572.562
2.4931833744049072,0,0,25162,1572.625
2.497177839279175,0,0,25159,1572.438
2.5011789798736572,0,0,25155,1572.188
2.505176544189453,0,0,25155,1572.188
2.509219169616699,0,0,25161,1572.562
2.513183116912842,0,0,25162,1572.625
2.517177104949951,0,0,25159,1572.438
2.521178960800171,0,0,25155,1572.188
2.5251762866973877,0,0,25155,1572.188
2.5292134284973145,0,0,25160,1572.500
2.53318190574646,0,0,25162,1572.625
2.5372636318206787,0,0,25159,1572.438
2.5412204265594482,0,0,25155,1572.188
2.5452146530151367,0,0,25155,1572.188
2.5492517948150635,0,0,25160,1572.500
2.5532195568084717,0,0,25162,1572.625
2.55721378326416,0,0,25159,1572.438
2.5612125396728516,0,0,25155,1572.188
2.5652146339416504,0,0,25155,1572.188
2.569251537322998,0,0,25160,1572.500
2.5732202529907227,0,0,25162,1572.625
2.577213764190674,0,0,25159,1572.438
2.581228494644165,0,0,25155,1572.188
2.585212230682373,0,0,25160,1572.500
2.589254379272461,0,0,25162,1572.625
2.59321928024292,0,0,25159,1572.438
2.597212314605713,0,0,25155,1572.188
2.6012134552001953,0,0,25156,1572.250
2.6052169799804688,0,0,25159,1572.438
2.6092514991760254,0,0,25162,1572.625
2.61322021484375,0,0,25159,1572.438
2.6172142028808594,0,0,25155,1572.188
2.62121319770813,0,0,25155,1572.188
2.6252150535583496,0,0,25159,1572.438
2.629248857498169,0,0,25161,1572.562
2.6332178115844727,0,0,25160,1572.500
2.637197732925415,0,0,25155,1572.188
2.641179084777832,0,0,25155,1572.188
2.645172357559204,0,0,25159,1572.438
2.6492061614990234,0,0,25161,1572.562
2.653208017349243,0,0,25159,1572.438
2.657177209854126,0,0,25155,1572.188
2.6611855030059814,0,0,25155,1572.188
2.6652302742004395,0,0,25159,1572.438
2.669219493865967,0,0,25162,1572.625
2.6733365058898926,0,0,25159,1572.438
2.677325487136841,0,0,25155,1572.188
2.681192636489868,0,0,25155,1572.188
2.6851706504821777,0,0,25159,1572.438
2.6892244815826416,0,0,25161,1572.562
2.693173408508301,0,0,25159,1572.438
2.6971628665924072,0,0,25155,1572.188
2.7011640071868896,0,0,25155,1572.188
2.7052462100982666,0,0,25158,1572.375
2.709214448928833,0,0,25161,1572.562
2.7132015228271484,0,0,25159,1572.438
2.717162847518921,0,0,25155,1572.188
2.7211623191833496,0,0,25154,1572.125
2.725179672241211,0,0,25158,1572.375
2.729203224182129,0,0,25161,1572.562
2.7331979274749756,0,0,25160,1572.500
2.73720121383667,0,0,25155,1572.188
2.741164207458496,0,0,25154,1572.125
2.745173692703247,0,0,25158,1572.375
2.749213457107544,0,0,25161,1572.562
2.753173589706421,0,0,25160,1572.500
2.7571635246276855,0,0,25155,1572.188
2.7611637115478516,0,0,25154,1572.125
2.765176773071289,0,0,25161,1572.562
2.769212007522583,0,0,25160,1572.500
2.7731781005859375,0,0,25155,1572.188
2.7771739959716797,0,0,25154,1572.125
2.7811756134033203,0,0,25157,1572.312
2.7851762771606445,0,0,25161,1572.562
2.789212942123413,0,0,25160,1572.500
2.7931740283966064,0,0,25155,1572.188
2.797163963317871,0,0,25154,1572.125
2.8011696338653564,0,0,25157,1572.312
2.8051726818084717,0,0,25161,1572.562
2.8092153072357178,0,0,25159,1572.438
2.813178777694702,0,0,25155,1572.188
2.817172050476074,0,0,25154,1572.125
2.8211731910705566,0,0,25157,1572.312
2.8251757621765137,0,0,25160,1572.500
2.829209327697754,0,0,25160,1572.500
2.8331780433654785,0,0,25155,1572.188
2.8372550010681152,0,0,25154,1572.125
2.8412370681762695,0,0,25157,1572.312
2.8452136516571045,0,0,25160,1572.500
2.8492486476898193,0,0,25160,1572.500
2.8532159328460693,0,0,25155,1572.188
2.8572113513946533,0,0,25154,1572.125
2.8612096309661865,0,0,25156,1572.250
2.8652138710021973,0,0,25161,1572.562
2.869245767593384,0,0,25160,1572.500
2.8732171058654785,0,0,25155,1572.188
2.8772103786468506,0,0,25154,1572.125
2.881220817565918,0,0,25156,1572.250
2.885209798812866,0,0,25160,1572.500
2.8892455101013184,0,0,25160,1572.500
2.893211603164673,0,0,25155,1572.188
2.8972091674804688,0,0,25155,1572.188
2.9012081623077393,0,0,25156,1572.250
2.90520977973938,0,0,25160,1572.500
2.9092464447021484,0,0,25159,1572.438
2.913213014602661,0,0,25156,1572.250
2.9172096252441406,0,0,25153,1572.062
2.9212093353271484,0,0,25156,1572.250
2.9252097606658936,0,0,25160,1572.500
2.92924427986145,0,0,25159,1572.438
2.9332149028778076,0,0,25156,1572.250
2.937230110168457,0,0,25154,1572.125
2.9411778450012207,0,0,25156,1572.250
2.9451704025268555,0,0,25160,1572.500
2.949211359024048,0,0,25156,1572.250
2.9531667232513428,0,0,25153,1572.062
2.957162857055664,0,0,25156,1572.250
2.9611706733703613,0,0,25160,1572.500
2.9651710987091064,0,0,25160,1572.500
2.969212055206299,0,0,25156,1572.250
2.9731740951538086,0,0,25153,1572.062
2.9771676063537598,0,0,25156,1572.250
2.981168508529663,0,0,25160,1572.500
2.9851696491241455,0,0,25160,1572.500
2.9892053604125977,0,0,25155,1572.188
2.9931750297546387,0,0,25153,1572.062
2.99716854095459,0,0,25155,1572.188
3.001171112060547,0,0,25160,1572.500
3.0051701068878174,0,0,25160,1572.500
3.009206771850586,0,0,25156,1572.250
3.018439769744873,0,0,25155,1572.188
3.0212199687957764,0,0,25160,1572.500
3.025176763534546,0,0,25160,1572.500
3.0292105674743652,0,0,25156,1572.250
3.0331759452819824,0,0,25154,1572.125
3.037182569503784,0,0,25155,1572.188
3.0411713123321533,0,0,25159,1572.438
3.0451700687408447,0,0,25160,1572.500
3.0492043495178223,0,0,25157,1572.312
3.0531723499298096,0,0,25154,1572.125
3.057168483734131,0,0,25155,1572.188
3.061166763305664,0,0,25160,1572.500
3.065166473388672,0,0,25160,1572.500
3.0692059993743896,0,0,25156,1572.250
3.073172092437744,0,0,25154,1572.125
3.077167272567749,0,0,25155,1572.188
3.0811655521392822,0,0,25160,1572.500
3.0851681232452393,0,0,25160,1572.500
3.0892038345336914,0,0,25156,1572.250
3.093173027038574,0,0,25153,1572.062
3.097169876098633,0,0,25155,1572.188
3.1011674404144287,0,0,25159,1572.438
3.1051690578460693,0,0,25160,1572.500
3.1092169284820557,0,0,25156,1572.250
3.113172769546509,0,0,25153,1572.062
3.1171698570251465,0,0,25154,1572.125
3.121166944503784,0,0,25159,1572.438
3.125168800354004,0,0,25160,1572.500
3.1292037963867188,0,0,25154,1572.125
3.1331725120544434,0,0,25154,1572.125
3.1372625827789307,0,0,25159,1572.438
3.141211986541748,0,0,25160,1572.500
3.1455047130584717,0,0,25157,1572.312
3.1494300365448,0,0,25153,1572.062
3.1532392501831055,0,0,25154,1572.125
3.1572043895721436,0,0,25159,1572.438
3.161203622817993,0,0,25160,1572.500
3.165205717086792,0,0,25157,1572.312
3.1692416667938232,0,0,25153,1572.062
3.1732068061828613,0,0,25154,1572.125
3.177201986312866,0,0,25159,1572.438
3.181216239929199,0,0,25160,1572.500
3.18520450592041,0,0,25157,1572.312
3.189244031906128,0,0,25153,1572.062
3.193208932876587,0,0,25154,1572.125
3.197206735610962,0,0,25158,1572.375
3.201204538345337,0,0,25161,1572.562
3.20540714263916,0,0,25157,1572.312
3.2092485427856445,0,0,25154,1572.125
3.213282585144043,0,0,25154,1572.125
3.2174136638641357,0,0,25159,1572.438
3.221254587173462,0,0,25160,1572.500
3.2252073287963867,0,0,25157,1572.312
3.229233741760254,0,0,25153,1572.062
3.233228921890259,0,0,25154,1572.125
3.237297773361206,0,0,25159,1572.438
3.241164207458496,0,0,25160,1572.500
3.2451603412628174,0,0,25158,1572.375
3.2491936683654785,0,0,25153,1572.062
3.253192663192749,0,0,25154,1572.125
3.2571563720703125,0,0,25158,1572.375
3.261152982711792,0,0,25160,1572.500
3.265157699584961,0,0,25158,1572.375
3.269195556640625,0,0,25153,1572.062
3.273202657699585,0,0,25153,1572.062
3.277437925338745,0,0,25158,1572.375
3.2812137603759766,0,0,25160,1572.500
3.2851741313934326,0,0,25157,1572.312
3.289203643798828,0,0,25153,1572.062
3.2931675910949707,0,0,25153,1572.062
3.2971653938293457,0,0,25158,1572.375
3.3011667728424072,0,0,25160,1572.500
3.3051650524139404,0,0,25158,1572.375
3.309203624725342,0,0,25153,1572.062
3.3131744861602783,0,0,25158,1572.375
3.317171812057495,0,0,25160,1572.500
3.321174144744873,0,0,25158,1572.375
3.325173854827881,0,0,25154,1572.125
3.329205274581909,0,0,25154,1572.125
3.333181858062744,0,0,25157,1572.312
3.337205648422241,0,0,25160,1572.500
3.3412258625030518,0,0,25158,1572.375
3.345203399658203,0,0,25154,1572.125
3.3492352962493896,0,0,25154,1572.125
3.3532400131225586,0,0,25157,1572.312
3.3572981357574463,0,0,25160,1572.500
3.361222505569458,0,0,25158,1572.375
3.365206241607666,0,0,25153,1572.062
3.3692309856414795,0,0,25153,1572.062
3.3732385635375977,0,0,25157,1572.312
3.377223491668701,0,0,25160,1572.500
3.381211280822754,0,0,25158,1572.375
3.385443925857544,0,0,25154,1572.125
3.3893723487854004,0,0,25153,1572.062
3.3932406902313232,0,0,25157,1572.312
3.3972055912017822,0,0,25160,1572.500
3.4013795852661133,0,0,25158,1572.375
3.4052374362945557,0,0,25153,1572.062
3.409233808517456,0,0,25153,1572.062
3.413228988647461,0,0,25157,1572.312
3.4172000885009766,0,0,25159,1572.438
3.421220064163208,0,0,25158,1572.375
3.4252066612243652,0,0,25153,1572.062
3.4292311668395996,0,0,25153,1572.062
3.433230400085449,0,0,25156,1572.250
3.437302589416504,0,0,25160,1572.500
3.4411709308624268,0,0,25159,1572.438
3.44516658782959,0,0,25154,1572.125
3.44919490814209,0,0,25153,1572.062
3.4531924724578857,0,0,25157,1572.312
3.457162380218506,0,0,25160,1572.500
3.4611623287200928,0,0,25159,1572.438
3.465172290802002,0,0,25154,1572.125
3.4692044258117676,0,0,25153,1572.062
3.473177194595337,0,0,25157,1572.312
3.4771728515625,0,0,25159,1572.438
3.481172561645508,0,0,25159,1572.438
3.485172986984253,0,0,25154,1572.125
3.4892051219940186,0,0,25153,1572.062
3.4931726455688477,0,0,25156,1572.250
3.497169256210327,0,0,25159,1572.438
3.501171588897705,0,0,25159,1572.438
3.505171060562134,0,0,25153,1572.062
3.509207248687744,0,0,25156,1572.250
3.513164520263672,0,0,25160,1572.500
3.517160654067993,0,0,25159,1572.438
3.5211617946624756,0,0,25155,1572.188
3.5251729488372803,0,0,25153,1572.062
3.529203414916992,0,0,25156,1572.250
3.533175468444824,0,0,25159,1572.438
3.5372629165649414,0,0,25159,1572.438
3.5412142276763916,0,0,25154,1572.125
3.5452075004577637,0,0,25153,1572.062
3.54923939704895,0,0,25156,1572.250
3.5532147884368896,0,0,25159,1572.438
3.5572078227996826,0,0,25159,1572.438
3.561208724975586,0,0,25154,1572.125
3.5652031898498535,0,0,25153,1572.062
3.5692379474639893,0,0,25155,1572.188
3.5732100009918213,0,0,25159,1572.438
3.5772063732147217,0,0,25160,1572.500
3.5812079906463623,0,0,25155,1572.188
3.585207223892212,0,0,25154,1572.125
3.5892417430877686,0,0,25155,1572.188
3.593212842941284,0,0,25160,1572.500
3.5972089767456055,0,0,25159,1572.438
3.6012091636657715,0,0,25155,1572.188
3.6052095890045166,0,0,25153,1572.062
3.609238624572754,0,0,25155,1572.188
3.6132123470306396,0,0,25159,1572.438
3.6172091960906982,0,0,25159,1572.438
3.621208906173706,0,0,25154,1572.125
3.6252033710479736,0,0,25153,1572.062
3.629236936569214,0,0,25155,1572.188
3.633213758468628,0,0,25160,1572.500
3.637261390686035,0,0,25159,1572.438
3.641176223754883,0,0,25155,1572.188
3.645172357559204,0,0,25153,1572.062
3.6492011547088623,0,0,25155,1572.188
3.653172731399536,0,0,25160,1572.500
3.657170295715332,0,0,25159,1572.438
3.6611695289611816,0,0,25155,1572.188
3.665170192718506,0,0,25153,1572.062
3.6692144870758057,0,0,25155,1572.188
3.673171043395996,0,0,25159,1572.438
3.67716121673584,0,0,25160,1572.500
3.6811676025390625,0,0,25155,1572.188
3.6852176189422607,0,0,25153,1572.062
3.689223051071167,0,0,25155,1572.188
3.693187952041626,0,0,25159,1572.438
3.6971757411956787,0,0,25159,1572.438
3.701178789138794,0,0,25155,1572.188
3.705177068710327,0,0,25155,1572.188
3.7092125415802,0,0,25159,1572.438
3.7131831645965576,0,0,25159,1572.438
3.717195749282837,0,0,25155,1572.188
3.7211806774139404,0,0,25153,1572.062
3.725177764892578,0,0,25154,1572.125
3.729203224182129,0,0,25159,1572.438
3.7331764698028564,0,0,25159,1572.438
3.7372655868530273,0,0,25155,1572.188
3.741217851638794,0,0,25152,1572.000
3.745213031768799,0,0,25154,1572.125
3.7492361068725586,0,0,25159,1572.438
3.7532126903533936,0,0,25159,1572.438
3.757218837738037,0,0,25156,1572.250
3.7612040042877197,0,0,25153,1572.062
3.765202045440674,0,0,25154,1572.125
3.7692384719848633,0,0,25159,1572.438
3.773206949234009,0,0,25159,1572.438
3.777202606201172,0,0,25156,1572.250
3.7812023162841797,0,0,25153,1572.062
3.785205125808716,0,0,25154,1572.125
3.7892372608184814,0,0,25159,1572.438
3.793210029602051,0,0,25159,1572.438
3.7972042560577393,0,0,25156,1572.250
3.801203727722168,0,0,25153,1572.062
3.805203676223755,0,0,25153,1572.062
3.8092377185821533,0,0,25158,1572.375
3.813201427459717,0,0,25159,1572.438
3.817192316055298,0,0,25156,1572.250
3.8211989402770996,0,0,25152,1572.000
3.8252031803131104,0,0,25153,1572.062
3.8292365074157715,0,0,25158,1572.375
3.833216428756714,0,0,25159,1572.438
3.8372979164123535,0,0,25156,1572.250
3.8411741256713867,0,0,25152,1572.000
3.8451642990112305,0,0,25153,1572.062
3.849198579788208,0,0,25158,1572.375
3.8531718254089355,0,0,25159,1572.438
3.857166051864624,0,0,25155,1572.188
3.861166000366211,0,0,25152,1572.000
3.865168333053589,0,0,25153,1572.062
3.869199752807617,0,0,25158,1572.375
3.873171091079712,0,0,25159,1572.438
3.877163887023926,0,0,25156,1572.250
3.881164789199829,0,0,25152,1572.000
3.885157823562622,0,0,25153,1572.062
3.889187812805176,0,0,25158,1572.375
3.893193244934082,0,0,25159,1572.438
3.8971657752990723,0,0,25156,1572.250
3.9011669158935547,0,0,25153,1572.062
3.905167818069458,0,0,25157,1572.312
3.909198522567749,0,0,25158,1572.375
3.9131691455841064,0,0,25156,1572.250
3.917165517807007,0,0,25153,1572.062
3.921164035797119,0,0,25153,1572.062
3.925161361694336,0,0,25158,1572.375
3.929196834564209,0,0,25159,1572.438
3.9331698417663574,0,0,25156,1572.250
3.937253475189209,0,0,25152,1572.000
3.94120717048645,0,0,25152,1572.000
3.9452059268951416,0,0,25157,1572.312
3.949234962463379,0,0,25159,1572.438
3.95320200920105,0,0,25157,1572.312
3.9571919441223145,0,0,25152,1572.000
3.96120023727417,0,0,25152,1572.000
3.965197801589966,0,0,25156,1572.250
3.9692301750183105,0,0,25159,1572.438
3.9732048511505127,0,0,25156,1572.250
3.9772017002105713,0,0,25152,1572.000
3.981201410293579,0,0,25152,1572.000
3.985201597213745,0,0,25157,1572.312
3.9892311096191406,0,0,25159,1572.438
3.9932045936584473,0,0,25156,1572.250
3.9972004890441895,0,0,25153,1572.062
4.0012047290802,0,0,25153,1572.062
4.005204916000366,0,0,25156,1572.250
4.00924825668335,0,0,25158,1572.375
4.01321005821228,0,0,25156,1572.250
4.036051511764526,0,0,25153,1572.062
4.0373053550720215,0,0,25153,1572.062
4.041171550750732,0,0,25152,1572.000
4.045166254043579,0,0,25156,1572.250
4.049211025238037,0,0,25159,1572.438
4.053170919418335,0,0,25157,1572.312
4.057164430618286,0,0,25152,1572.000
4.061164855957031,0,0,25152,1572.000
4.065161228179932,0,0,25156,1572.250
4.069195985794067,0,0,25158,1572.375
4.073167324066162,0,0,25157,1572.312
4.0771644115448,0,0,25153,1572.062
4.081161737442017,0,0,25152,1572.000
4.08516526222229,0,0,25156,1572.250
4.089197635650635,0,0,25158,1572.375
4.093167781829834,0,0,25158,1572.375
4.0971643924713135,0,0,25152,1572.000
4.101163625717163,0,0,25156,1572.250
4.105162620544434,0,0,25159,1572.438
4.109195709228516,0,0,25158,1572.375
4.113166332244873,0,0,25153,1572.062
4.117163181304932,0,0,25152,1572.000
4.121163845062256,0,0,25156,1572.250
4.12516450881958,0,0,25159,1572.438
4.129193305969238,0,0,25157,1572.312
4.1331682205200195,0,0,25153,1572.062
4.1372597217559814,0,0,25152,1572.000
4.141202211380005,0,0,25156,1572.250
4.1454854011535645,0,0,25159,1572.438
4.149425983428955,0,0,25157,1572.312
4.153235197067261,0,0,25153,1572.062
4.157203435897827,0,0,25152,1572.000
4.161200523376465,0,0,25156,1572.250
4.165201902389526,0,0,25159,1572.438
4.169229745864868,0,0,25158,1572.375
4.173202276229858,0,0,25153,1572.062
4.177199125289917,0,0,25152,1572.000
4.181199073791504,0,0,25155,1572.188
4.185199022293091,0,0,25159,1572.438
4.189231634140015,0,0,25158,1572.375
4.193207263946533,0,0,25153,1572.062
4.197201728820801,0,0,25153,1572.062
4.20119833946228,0,0,25156,1572.250
4.205199480056763,0,0,25158,1572.375
4.209233045578003,0,0,25158,1572.375
4.2132041454315186,0,0,25153,1572.062
4.217201232910156,0,0,25153,1572.062
4.221199989318848,0,0,25155,1572.188
4.225197076797485,0,0,25159,1572.438
4.229231119155884,0,0,25159,1572.438
4.233205318450928,0,0,25153,1572.062
4.237304210662842,0,0,25152,1572.000
4.241168022155762,0,0,25156,1572.250
4.245164155960083,0,0,25159,1572.438
4.249194622039795,0,0,25158,1572.375
4.253162145614624,0,0,25153,1572.062
4.25715970993042,0,0,25152,1572.000
4.261171817779541,0,0,25155,1572.188
4.265164613723755,0,0,25159,1572.438
4.269195079803467,0,0,25158,1572.375
4.273165225982666,0,0,25153,1572.062
4.277160167694092,0,0,25152,1572.000
4.281161069869995,0,0,25155,1572.188
4.2851643562316895,0,0,25160,1572.500
4.289192199707031,0,0,25159,1572.438
4.29316258430481,0,0,25154,1572.125
4.297160863876343,0,0,25155,1572.188
4.301160573959351,0,0,25159,1572.438
4.305163145065308,0,0,25159,1572.438
4.309196710586548,0,0,25154,1572.125
4.313164949417114,0,0,25153,1572.062
4.317160367965698,0,0,25155,1572.188
4.321160316467285,0,0,25158,1572.375
4.325161457061768,0,0,25159,1572.438
4.329183340072632,0,0,25154,1572.125
4.333208322525024,0,0,25152,1572.000
4.337196111679077,0,0,25155,1572.188
4.341206073760986,0,0,25159,1572.438
4.345210075378418,0,0,25159,1572.438
4.349230766296387,0,0,25154,1572.125
4.353210210800171,0,0,25153,1572.062
4.357205629348755,0,0,25154,1572.125
4.361203908920288,0,0,25159,1572.438
4.3652024269104,0,0,25159,1572.438
4.369230031967163,0,0,25155,1572.188
4.373205661773682,0,0,25152,1572.000
4.377203702926636,0,0,25154,1572.125
4.381201267242432,0,0,25159,1572.438
4.385204792022705,0,0,25159,1572.438
4.3892340660095215,0,0,25155,1572.188
4.3932106494903564,0,0,25152,1572.000
4.397201299667358,0,0,25154,1572.125
4.40120267868042,0,0,25159,1572.438
4.4052207469940186,0,0,25159,1572.438
4.409230709075928,0,0,25155,1572.188
4.413209676742554,0,0,25152,1572.000
4.417204141616821,0,0,25154,1572.125
4.421205520629883,0,0,25159,1572.438
4.425217151641846,0,0,25159,1572.438
4.42923641204834,0,0,25155,1572.188
4.433204889297485,0,0,25152,1572.000
4.4372594356536865,0,0,25154,1572.125
4.441159248352051,0,0,25159,1572.438
4.445173740386963,0,0,25159,1572.438
4.4492011070251465,0,0,25155,1572.188
4.45316481590271,0,0,25153,1572.062
4.457153081893921,0,0,25154,1572.125
4.461165428161621,0,0,25159,1572.438
4.465168237686157,0,0,25159,1572.438
4.469197988510132,0,0,25155,1572.188
4.473174333572388,0,0,25152,1572.000
4.477169990539551,0,0,25153,1572.062
4.481632471084595,0,0,25159,1572.438
4.485316276550293,0,0,25160,1572.500
4.489210844039917,0,0,25155,1572.188
4.493172645568848,0,0,25153,1572.062
4.497154951095581,0,0,25154,1572.125
4.501158237457275,0,0,25159,1572.438
4.505178689956665,0,0,25159,1572.438
4.509198427200317,0,0,25153,1572.062
4.513166666030884,0,0,25153,1572.062
4.5172646045684814,0,0,25158,1572.375
4.521167516708374,0,0,25159,1572.438
4.525160789489746,0,0,25156,1572.250
4.529181957244873,0,0,25153,1572.062
4.533181428909302,0,0,25154,1572.125
4.537191867828369,0,0,25158,1572.375
4.541167736053467,0,0,25160,1572.500
4.545158624649048,0,0,25156,1572.250
4.549182891845703,0,0,25153,1572.062
4.553181886672974,0,0,25153,1572.062
4.5571558475494385,0,0,25158,1572.375
4.561153888702393,0,0,25159,1572.438
4.565160512924194,0,0,25157,1572.312
4.5691819190979,0,0,25153,1572.062
4.57318902015686,0,0,25154,1572.125
4.577157497406006,0,0,25158,1572.375
4.581152677536011,0,0,25159,1572.438
4.5851686000823975,0,0,25157,1572.312
4.589184761047363,0,0,25153,1572.062
4.593201398849487,0,0,25154,1572.125
4.5971620082855225,0,0,25158,1572.375
4.601156234741211,0,0,25159,1572.438
4.605165243148804,0,0,25157,1572.312
4.6091930866241455,0,0,25153,1572.062
4.61316442489624,0,0,25154,1572.125
4.617154359817505,0,0,25158,1572.375
4.621156215667725,0,0,25159,1572.438
4.625162839889526,0,0,25157,1572.312
4.629193544387817,0,0,25153,1572.062
4.633171081542969,0,0,25153,1572.062
4.6372740268707275,0,0,25158,1572.375
4.641207456588745,0,0,25159,1572.438
4.645204067230225,0,0,25157,1572.312
4.649229526519775,0,0,25153,1572.062
4.653205633163452,0,0,25153,1572.062
4.6571996212005615,0,0,25158,1572.375
4.661201000213623,0,0,25159,1572.438
4.665202856063843,0,0,25157,1572.312
4.66922926902771,0,0,25153,1572.062
4.673205375671387,0,0,25153,1572.062
4.67720103263855,0,0,25157,1572.312
4.681215524673462,0,0,25159,1572.438
4.685202121734619,0,0,25157,1572.312
4.689226150512695,0,0,25153,1572.062
4.693204641342163,0,0,25153,1572.062
4.697200775146484,0,0,25158,1572.375
4.701197624206543,0,0,25159,1572.438
4.705191373825073,0,0,25157,1572.312
4.709217548370361,0,0,25153,1572.062
4.713225603103638,0,0,25153,1572.062
4.7171995639801025,0,0,25158,1572.375
4.721198081970215,0,0,25159,1572.438
4.725202322006226,0,0,25153,1572.062
4.729226589202881,0,0,25153,1572.062
4.733203411102295,0,0,25157,1572.312
4.737252473831177,0,0,25160,1572.500
4.741166830062866,0,0,25158,1572.375
4.745160102844238,0,0,25153,1572.062
4.749189853668213,0,0,25153,1572.062
4.75316858291626,0,0,25157,1572.312
4.757161855697632,0,0,25159,1572.438
4.761159658432007,0,0,25158,1572.375
4.765161991119385,0,0,25153,1572.062
4.7691895961761475,0,0,25153,1572.062
4.773162364959717,0,0,25157,1572.312
4.777160882949829,0,0,25160,1572.500
4.781160116195679,0,0,25158,1572.375
4.7851598262786865,0,0,25153,1572.062
4.789189100265503,0,0,25153,1572.062
4.793164253234863,0,0,25157,1572.312
4.797159433364868,0,0,25160,1572.500
4.80116081237793,0,0,25159,1572.438
4.80516242980957,0,0,25153,1572.062
4.809187650680542,0,0,25153,1572.062
4.8131654262542725,0,0,25157,1572.312
4.817160606384277,0,0,25160,1572.500
4.821160316467285,0,0,25159,1572.438
4.825157403945923,0,0,25153,1572.062
4.829190731048584,0,0,25153,1572.062
4.83316969871521,0,0,25156,1572.250
4.837253570556641,0,0,25160,1572.500
4.841203927993774,0,0,25158,1572.375
4.845196008682251,0,0,25154,1572.125
4.849227428436279,0,0,25153,1572.062
4.8532021045684814,0,0,25156,1572.250
4.857194423675537,0,0,25159,1572.438
4.861196994781494,0,0,25159,1572.438
4.865195035934448,0,0,25153,1572.062
4.86922287940979,0,0,25152,1572.000
4.873201608657837,0,0,25156,1572.250
4.877196788787842,0,0,25159,1572.438
4.881198406219482,0,0,25159,1572.438
4.885197401046753,0,0,25153,1572.062
4.889221668243408,0,0,25153,1572.062
4.893200874328613,0,0,25156,1572.250
4.897197246551514,0,0,25159,1572.438
4.901195526123047,0,0,25159,1572.438
4.905191659927368,0,0,25154,1572.125
4.909220933914185,0,0,25153,1572.062
4.913202524185181,0,0,25156,1572.250
4.9172022342681885,0,0,25159,1572.438
4.9211976528167725,0,0,25159,1572.438
4.92520809173584,0,0,25155,1572.188
4.929225921630859,0,0,25153,1572.062
4.933204174041748,0,0,25156,1572.250
4.937232971191406,0,0,25159,1572.438
4.941194772720337,0,0,25154,1572.125
4.945197343826294,0,0,25153,1572.062
4.949226140975952,0,0,25155,1572.188
4.953195810317993,0,0,25159,1572.438
4.957182168960571,0,0,25159,1572.438
4.961191654205322,0,0,25154,1572.125
4.965193033218384,0,0,25153,1572.062
4.969222545623779,0,0,25155,1572.188
4.973200559616089,0,0,25160,1572.500
4.977195739746094,0,0,25159,1572.438
4.9811930656433105,0,0,25154,1572.125
4.985195875167847,0,0,25153,1572.062
4.989228248596191,0,0,25155,1572.188
4.993202209472656,0,0,25159,1572.438
4.997195482254028,0,0,25159,1572.438
5.001195669174194,0,0,25154,1572.125
5.0051984786987305,0,0,25153,1572.062
5.009222030639648,0,0,25155,1572.188
5.013195276260376,0,0,25159,1572.438
5.017194986343384,0,0,25159,1572.438
5.0212061405181885,0,0,25154,1572.125
5.025195598602295,0,0,25153,1572.062
5.029223918914795,0,0,25155,1572.188
5.039607524871826,0,0,25155,1572.188
5.041213274002075,0,0,25155,1572.188
5.045176267623901,0,0,25153,1572.062
5.049193620681763,0,0,25155,1572.188
5.05315375328064,0,0,25160,1572.500
5.057147979736328,0,0,25159,1572.438
5.061150312423706,0,0,25155,1572.188
5.065159797668457,0,0,25153,1572.062
5.0691869258880615,0,0,25155,1572.188
5.073166370391846,0,0,25159,1572.438
5.077160596847534,0,0,25159,1572.438
5.081157922744751,0,0,25155,1572.188
5.085155725479126,0,0,25152,1572.000
5.089186429977417,0,0,25155,1572.188
5.093163967132568,0,0,25159,1572.438
5.097159385681152,0,0,25159,1572.438
5.101157903671265,0,0,25155,1572.188
5.105159759521484,0,0,25152,1572.000
5.109185457229614,0,0,25154,1572.125
5.113160848617554,0,0,25159,1572.438
5.117158889770508,0,0,25159,1572.438
5.121159553527832,0,0,25155,1572.188
5.1251561641693115,0,0,25153,1572.062
5.129187107086182,0,0,25154,1572.125
5.1331627368927,0,0,25159,1572.438
5.13717246055603,0,0,25159,1572.438
5.14116096496582,0,0,25155,1572.188
5.145487308502197,0,0,25155,1572.188
5.149361610412598,0,0,25159,1572.438
5.153188705444336,0,0,25159,1572.438
5.157159328460693,0,0,25156,1572.250
5.161157846450806,0,0,25153,1572.062
5.165156126022339,0,0,25154,1572.125
5.169184684753418,0,0,25159,1572.438
5.173162460327148,0,0,25160,1572.500
5.177157640457153,0,0,25155,1572.188
5.181156158447266,0,0,25153,1572.062
5.185157775878906,0,0,25154,1572.125
5.189187288284302,0,0,25159,1572.438
5.1931633949279785,0,0,25160,1572.500
5.197157144546509,0,0,25156,1572.250
5.20115852355957,0,0,25153,1572.062
5.205150842666626,0,0,25154,1572.125
5.209191083908081,0,0,25159,1572.438
5.213161945343018,0,0,25159,1572.438
5.217155456542969,0,0,25156,1572.250
5.221156597137451,0,0,25153,1572.062
5.225155353546143,0,0,25154,1572.125
5.229181528091431,0,0,25159,1572.438
5.233152151107788,0,0,25160,1572.500
5.2372565269470215,0,0,25156,1572.250
5.241184949874878,0,0,25153,1572.062
5.24519681930542,0,0,25154,1572.125
5.249224901199341,0,0,25158,1572.375
5.25320029258728,0,0,25159,1572.438
5.257192850112915,0,0,25156,1572.250
5.2611939907073975,0,0,25153,1572.062
5.26519775390625,0,0,25153,1572.062
5.269222736358643,0,0,25158,1572.375
5.27320408821106,0,0,25159,1572.438
5.277198791503906,0,0,25157,1572.312
5.281208753585815,0,0,25153,1572.062
5.285194396972656,0,0,25153,1572.062
5.289208889007568,0,0,25158,1572.375
5.2932209968566895,0,0,25159,1572.438
5.297283411026001,0,0,25156,1572.250
5.301464319229126,0,0,25153,1572.062
5.305238485336304,0,0,25153,1572.062
5.309211015701294,0,0,25158,1572.375
5.313222646713257,0,0,25160,1572.500
5.317270517349243,0,0,25157,1572.312
5.32122015953064,0,0,25153,1572.062
5.325194358825684,0,0,25153,1572.062
5.329211235046387,0,0,25158,1572.375
5.333227872848511,0,0,25160,1572.500
5.337298154830933,0,0,25157,1572.312
5.341158866882324,0,0,25153,1572.062
5.34515643119812,0,0,25153,1572.062
5.349189043045044,0,0,25158,1572.375
5.3531928062438965,0,0,25159,1572.438
5.357163667678833,0,0,25158,1572.375
5.361161708831787,0,0,25153,1572.062
5.365162134170532,0,0,25153,1572.062
5.369189739227295,0,0,25158,1572.375
5.373159408569336,0,0,25160,1572.500
5.377150535583496,0,0,25153,1572.062
5.381149530410767,0,0,25153,1572.062
5.385162830352783,0,0,25158,1572.375
5.389188289642334,0,0,25160,1572.500
5.393159866333008,0,0,25157,1572.312
5.397158622741699,0,0,25153,1572.062
5.401160955429077,0,0,25153,1572.062
5.40516209602356,0,0,25157,1572.312
5.409182786941528,0,0,25160,1572.500
5.413162708282471,0,0,25157,1572.312
5.417159795761108,0,0,25153,1572.062
5.421159029006958,0,0,25153,1572.062
5.425154685974121,0,0,25158,1572.375
5.429185152053833,0,0,25160,1572.500
5.4331605434417725,0,0,25158,1572.375
5.437245607376099,0,0,25153,1572.062
5.441203594207764,0,0,25153,1572.062
5.445196151733398,0,0,25158,1572.375
5.449221611022949,0,0,25160,1572.500
5.453193426132202,0,0,25158,1572.375
5.457183837890625,0,0,25153,1572.062
5.46118950843811,0,0,25153,1572.062
5.465193748474121,0,0,25157,1572.312
5.469219207763672,0,0,25160,1572.500
5.473204851150513,0,0,25158,1572.375
5.477195739746094,0,0,25153,1572.062
5.48119330406189,0,0,25153,1572.062
5.485195875167847,0,0,25157,1572.312
5.489221096038818,0,0,25160,1572.500
5.493200302124023,0,0,25158,1572.375
5.4971935749053955,0,0,25153,1572.062
5.501195430755615,0,0,25153,1572.062
5.505194664001465,0,0,25157,1572.312
5.509219169616699,0,0,25159,1572.438
5.5132036209106445,0,0,25158,1572.375
5.517193794250488,0,0,25153,1572.062
5.521195411682129,0,0,25153,1572.062
5.525197505950928,0,0,25156,1572.250
5.52921724319458,0,0,25160,1572.500
5.533199071884155,0,0,25159,1572.438
5.5371997356414795,0,0,25153,1572.062
5.541162014007568,0,0,25153,1572.062
5.545158386230469,0,0,25156,1572.250
5.549182176589966,0,0,25160,1572.500
5.553160905838013,0,0,25159,1572.438
5.55715799331665,0,0,25154,1572.125
5.561158657073975,0,0,25153,1572.062
5.565158128738403,0,0,25156,1572.250
5.56917929649353,0,0,25160,1572.500
5.573161840438843,0,0,25158,1572.375
5.577157735824585,0,0,25153,1572.062
5.581156015396118,0,0,25153,1572.062
5.585155487060547,0,0,25156,1572.250
5.589184761047363,0,0,25160,1572.500
5.593156337738037,0,0,25158,1572.375
5.59714412689209,0,0,25154,1572.125
5.601146459579468,0,0,25153,1572.062
5.605157852172852,0,0,25156,1572.250
5.609182357788086,0,0,25159,1572.438
5.6131603717803955,0,0,25154,1572.125
5.617156505584717,0,0,25153,1572.062
5.621155738830566,0,0,25156,1572.250
5.625156879425049,0,0,25160,1572.500
5.629190683364868,0,0,25159,1572.438
5.6331627368927,0,0,25154,1572.125
5.637248992919922,0,0,25153,1572.062
5.641202688217163,0,0,25156,1572.250
5.645199298858643,0,0,25159,1572.438
5.649216651916504,0,0,25159,1572.438
5.653198480606079,0,0,25154,1572.125
5.657193422317505,0,0,25153,1572.062
5.661194324493408,0,0,25155,1572.188
5.665195465087891,0,0,25159,1572.438
5.669214725494385,0,0,25159,1572.438
5.6732001304626465,0,0,25154,1572.125
5.677194118499756,0,0,25153,1572.062
5.681193113327026,0,0,25155,1572.188
5.6851959228515625,0,0,25159,1572.438
5.6892149448394775,0,0,25159,1572.438
5.693195343017578,0,0,25155,1572.188
5.6971917152404785,0,0,25153,1572.062
5.701192378997803,0,0,25155,1572.188
5.705187082290649,0,0,25159,1572.438
5.709203481674194,0,0,25159,1572.438
5.713214635848999,0,0,25154,1572.125
5.717194318771362,0,0,25153,1572.062
5.721193313598633,0,0,25155,1572.188
5.7251927852630615,0,0,25159,1572.438
5.729215145111084,0,0,25159,1572.438
5.733191013336182,0,0,25154,1572.125
5.737227916717529,0,0,25153,1572.062
5.741192817687988,0,0,25155,1572.188
5.74519419670105,0,0,25159,1572.438
5.7492170333862305,0,0,25159,1572.438
5.753197431564331,0,0,25155,1572.188
5.757190465927124,0,0,25153,1572.062
5.761190176010132,0,0,25155,1572.188
5.765188455581665,0,0,25159,1572.438
5.769213914871216,0,0,25159,1572.438
5.773190021514893,0,0,25155,1572.188
5.777191162109375,0,0,25153,1572.062
5.78119158744812,0,0,25154,1572.125
5.785192012786865,0,0,25159,1572.438
5.78921365737915,0,0,25158,1572.375
5.79319167137146,0,0,25155,1572.188
5.797191858291626,0,0,25152,1572.000
5.801192045211792,0,0,25154,1572.125
5.80518913269043,0,0,25159,1572.438
5.8092145919799805,0,0,25159,1572.438
5.813196182250977,0,0,25155,1572.188
5.8171916007995605,0,0,25153,1572.062
5.821188449859619,0,0,25154,1572.125
5.825191020965576,0,0,25159,1572.438
5.829218149185181,0,0,25159,1572.438
5.833194971084595,0,0,25155,1572.188
5.8372297286987305,0,0,25153,1572.062
5.841192722320557,0,0,25159,1572.438
5.845186948776245,0,0,25159,1572.438
5.84921407699585,0,0,25155,1572.188
5.853197813034058,0,0,25153,1572.062
5.857189178466797,0,0,25154,1572.125
5.86118745803833,0,0,25159,1572.438
5.865185260772705,0,0,25159,1572.438
5.869202375411987,0,0,25156,1572.250
5.873212575912476,0,0,25152,1572.000
5.877188205718994,0,0,25154,1572.125
5.881189823150635,0,0,25158,1572.375
5.885187864303589,0,0,25159,1572.438
5.8892128467559814,0,0,25156,1572.250
5.89319372177124,0,0,25153,1572.062
5.897189378738403,0,0,25154,1572.125
5.901190280914307,0,0,25158,1572.375
5.905190467834473,0,0,25159,1572.438
5.909211158752441,0,0,25156,1572.250
5.913194894790649,0,0,25152,1572.000
5.917189359664917,0,0,25153,1572.062
5.921189069747925,0,0,25159,1572.438
5.925184965133667,0,0,25159,1572.438
5.929211854934692,0,0,25156,1572.250
5.933195114135742,0,0,25152,1572.000
5.937223434448242,0,0,25153,1572.062
5.941187858581543,0,0,25158,1572.375
5.9451892375946045,0,0,25159,1572.438
5.949215650558472,0,0,25155,1572.188
5.953185796737671,0,0,25152,1572.000
5.9571757316589355,0,0,25153,1572.062
5.961184501647949,0,0,25158,1572.375
5.9651875495910645,0,0,25159,1572.438
5.969212055206299,0,0,25156,1572.250
5.973194599151611,0,0,25152,1572.000
5.977186918258667,0,0,25153,1572.062
5.981188774108887,0,0,25158,1572.375
5.9851906299591064,0,0,25159,1572.438
5.989211082458496,0,0,25157,1572.312
5.993191242218018,0,0,25152,1572.000
5.997189283370972,0,0,25153,1572.062
6.001188516616821,0,0,25158,1572.375
6.00518798828125,0,0,25159,1572.438
6.009222745895386,0,0,25156,1572.250
6.01318883895874,0,0,25152,1572.000
6.017191171646118,0,0,25153,1572.062
6.021188497543335,0,0,25157,1572.312
6.025187730789185,0,0,25159,1572.438
6.0292112827301025,0,0,25156,1572.250
6.033191442489624,0,0,25153,1572.062
6.043135643005371,0,0,25159,1572.438
6.045212984085083,0,0,25159,1572.438
6.049187660217285,0,0,25156,1572.250
6.053163528442383,0,0,25152,1572.000
6.057149410247803,0,0,25153,1572.062
6.0611536502838135,0,0,25157,1572.312
6.065154790878296,0,0,25159,1572.438
6.069177150726318,0,0,25156,1572.250
6.073151111602783,0,0,25153,1572.062
6.077141284942627,0,0,25157,1572.312
6.0811378955841064,0,0,25159,1572.438
6.085149049758911,0,0,25156,1572.250
6.089176654815674,0,0,25152,1572.000
6.093155145645142,0,0,25153,1572.062
6.097150087356567,0,0,25157,1572.312
6.101150989532471,0,0,25159,1572.438
6.10515022277832,0,0,25157,1572.312
6.109173536300659,0,0,25153,1572.062
6.1131508350372314,0,0,25153,1572.062
6.117150545120239,0,0,25157,1572.312
6.121148347854614,0,0,25158,1572.375
6.125150680541992,0,0,25157,1572.312
6.129173278808594,0,0,25153,1572.062
6.133153676986694,0,0,25153,1572.062
6.137162923812866,0,0,25156,1572.250
6.141149282455444,0,0,25159,1572.438
6.145472288131714,0,0,25157,1572.312
6.149351358413696,0,0,25152,1572.000
6.15317702293396,0,0,25152,1572.000
6.157149791717529,0,0,25156,1572.250
6.161149024963379,0,0,25159,1572.438
6.165149688720703,0,0,25157,1572.312
6.169172763824463,0,0,25152,1572.000
6.173152923583984,0,0,25152,1572.000
6.17715048789978,0,0,25156,1572.250
6.181149244308472,0,0,25159,1572.438
6.185147285461426,0,0,25157,1572.312
6.189176559448242,0,0,25153,1572.062
6.193156480789185,0,0,25152,1572.000
6.197148561477661,0,0,25156,1572.250
6.2011473178863525,0,0,25158,1572.375
6.205145835876465,0,0,25158,1572.375
6.20916485786438,0,0,25152,1572.000
6.213174343109131,0,0,25152,1572.000
6.217149257659912,0,0,25156,1572.250
6.221147060394287,0,0,25159,1572.438
6.2251458168029785,0,0,25157,1572.312
6.229171276092529,0,0,25153,1572.062
6.233154296875,0,0,25152,1572.000
6.237259149551392,0,0,25156,1572.250
6.241190433502197,0,0,25159,1572.438
6.2451865673065186,0,0,25158,1572.375
6.24919867515564,0,0,25153,1572.062
6.253210544586182,0,0,25152,1572.000
6.2571868896484375,0,0,25155,1572.188
6.261184930801392,0,0,25158,1572.375
6.265183210372925,0,0,25158,1572.375
6.269209146499634,0,0,25153,1572.062
6.273191690444946,0,0,25152,1572.000
6.277187347412109,0,0,25155,1572.188
6.281186580657959,0,0,25159,1572.438
6.285187482833862,0,0,25158,1572.375
6.2892069816589355,0,0,25153,1572.062
6.293200254440308,0,0,25152,1572.000
6.297190427780151,0,0,25155,1572.188
6.301184892654419,0,0,25159,1572.438
6.305176258087158,0,0,25158,1572.375
6.309295177459717,0,0,25151,1571.938
6.313209533691406,0,0,25155,1572.188
6.3171796798706055,0,0,25159,1572.438
6.321570873260498,0,0,25158,1572.375
6.325440883636475,0,0,25153,1572.062
6.329265594482422,0,0,25152,1572.000
6.333211660385132,0,0,25155,1572.188
6.337203025817871,0,0,25159,1572.438
6.3411664962768555,0,0,25158,1572.375
6.345208168029785,0,0,25153,1572.062
6.349184513092041,0,0,25152,1572.000
6.353158235549927,0,0,25155,1572.188
6.357165336608887,0,0,25158,1572.375
6.361161470413208,0,0,25158,1572.375
6.36515736579895,0,0,25153,1572.062
6.3691487312316895,0,0,25152,1572.000
6.373177766799927,0,0,25155,1572.188
6.377156972885132,0,0,25159,1572.438
6.381157875061035,0,0,25158,1572.375
6.38515830039978,0,0,25153,1572.062
6.389170408248901,0,0,25152,1572.000
6.393157958984375,0,0,25154,1572.125
6.3971545696258545,0,0,25158,1572.375
6.401156187057495,0,0,25158,1572.375
6.405174255371094,0,0,25153,1572.062
6.409157752990723,0,0,25152,1572.000
6.4131574630737305,0,0,25154,1572.125
6.417152404785156,0,0,25158,1572.375
6.421153545379639,0,0,25158,1572.375
6.425156116485596,0,0,25153,1572.062
6.429157972335815,0,0,25152,1572.000
6.433156490325928,0,0,25154,1572.125
6.437256097793579,0,0,25158,1572.375
6.441195011138916,0,0,25158,1572.375
6.4451985359191895,0,0,25154,1572.125
6.449195623397827,0,0,25152,1572.000
6.453189373016357,0,0,25154,1572.125
6.457181692123413,0,0,25158,1572.375
6.461181402206421,0,0,25159,1572.438
6.465198040008545,0,0,25155,1572.188
6.469208002090454,0,0,25152,1572.000
6.473196983337402,0,0,25153,1572.062
6.477190256118774,0,0,25159,1572.438
6.481192350387573,0,0,25159,1572.438
6.4851975440979,0,0,25154,1572.125
6.489192247390747,0,0,25152,1572.000
6.4931960105896,0,0,25154,1572.125
6.497188329696655,0,0,25158,1572.375
6.501191139221191,0,0,25158,1572.375
6.5051960945129395,0,0,25154,1572.125
6.509194374084473,0,0,25152,1572.000
6.513192653656006,0,0,25153,1572.062
6.517186164855957,0,0,25158,1572.375
6.5211896896362305,0,0,25159,1572.438
6.525209426879883,0,0,25155,1572.188
6.52919340133667,0,0,25152,1572.000
6.533190727233887,0,0,25153,1572.062
6.5372703075408936,0,0,25158,1572.375
6.5411577224731445,0,0,25158,1572.375
6.545158624649048,0,0,25154,1572.125
6.5491557121276855,0,0,25152,1572.000
6.553154468536377,0,0,25153,1572.062
6.557149410247803,0,0,25158,1572.375
6.561150550842285,0,0,25155,1572.188
6.565157890319824,0,0,25152,1572.000
6.569153308868408,0,0,25153,1572.062
6.573148012161255,0,0,25157,1572.312
6.5771484375,0,0,25159,1572.438
6.581156492233276,0,0,25155,1572.188
6.585156440734863,0,0,25152,1572.000
6.589150667190552,0,0,25153,1572.062
6.593153238296509,0,0,25158,1572.375
6.597149610519409,0,0,25159,1572.438
6.601151466369629,0,0,25155,1572.188
6.6051554679870605,0,0,25152,1572.000
6.609153747558594,0,0,25153,1572.062
6.613154411315918,0,0,25157,1572.312
6.617149114608765,0,0,25159,1572.438
6.621155500411987,0,0,25155,1572.188
6.625155687332153,0,0,25152,1572.000
6.629149913787842,0,0,25153,1572.062
6.633149147033691,0,0,25157,1572.312
6.637233734130859,0,0,25158,1572.375
6.64117956161499,0,0,25155,1572.188
6.64520001411438,0,0,25152,1572.000
6.6491923332214355,0,0,25152,1572.000
6.653191089630127,0,0,25158,1572.375
6.657186031341553,0,0,25159,1572.438
6.661190986633301,0,0,25155,1572.188
6.665193319320679,0,0,25152,1572.000
6.669188976287842,0,0,25152,1572.000
6.673189878463745,0,0,25157,1572.312
6.677187442779541,0,0,25159,1572.438
6.681188344955444,0,0,25156,1572.250
6.685189723968506,0,0,25152,1572.000
6.689187526702881,0,0,25152,1572.000
6.69318962097168,0,0,25158,1572.375
6.69718599319458,0,0,25158,1572.375
6.701191425323486,0,0,25156,1572.250
6.705187559127808,0,0,25152,1572.000
6.709177494049072,0,0,25152,1572.000
6.71320652961731,0,0,25157,1572.312
6.717186689376831,0,0,25159,1572.438
6.7211902141571045,0,0,25156,1572.250
6.7251927852630615,0,0,25153,1572.062
6.729190826416016,0,0,25152,1572.000
6.733189582824707,0,0,25157,1572.312
6.737188339233398,0,0,25158,1572.375
6.741157293319702,0,0,25156,1572.250
6.745157241821289,0,0,25152,1572.000
6.749149799346924,0,0,25152,1572.000
6.75314998626709,0,0,25157,1572.312
6.757144451141357,0,0,25158,1572.375
6.761149883270264,0,0,25156,1572.250
6.765147924423218,0,0,25152,1572.000
6.769150972366333,0,0,25152,1572.000
6.773150205612183,0,0,25156,1572.250
6.777147054672241,0,0,25158,1572.375
6.781152009963989,0,0,25156,1572.250
6.785153150558472,0,0,25152,1572.000
6.789148807525635,0,0,25152,1572.000
6.79314398765564,0,0,25157,1572.312
6.797141075134277,0,0,25158,1572.375
6.801138877868652,0,0,25157,1572.312
6.8051533699035645,0,0,25152,1572.000
6.809140205383301,0,0,25152,1572.000
6.8131654262542725,0,0,25158,1572.375
6.817146301269531,0,0,25156,1572.250
6.821147918701172,0,0,25152,1572.000
6.825154066085815,0,0,25152,1572.000
6.8291497230529785,0,0,25156,1572.250
6.833144664764404,0,0,25159,1572.438
6.837235450744629,0,0,25157,1572.312
6.841198205947876,0,0,25152,1572.000
6.8451988697052,0,0,25152,1572.000
6.849187135696411,0,0,25156,1572.250
6.85318922996521,0,0,25158,1572.375
6.857181549072266,0,0,25157,1572.312
6.861187934875488,0,0,25152,1572.000
6.865193128585815,0,0,25152,1572.000
6.8691864013671875,0,0,25156,1572.250
6.873186111450195,0,0,25158,1572.375
6.877183198928833,0,0,25158,1572.375
6.881192207336426,0,0,25152,1572.000
6.885188817977905,0,0,25152,1572.000
6.889173746109009,0,0,25156,1572.250
6.893200635910034,0,0,25159,1572.438
6.897184133529663,0,0,25157,1572.312
6.90118670463562,0,0,25153,1572.062
6.905193328857422,0,0,25151,1571.938
6.909185171127319,0,0,25156,1572.250
6.9131879806518555,0,0,25158,1572.375
6.917179346084595,0,0,25157,1572.312
6.921186685562134,0,0,25152,1572.000
6.9251930713653564,0,0,25152,1572.000
6.929183483123779,0,0,25155,1572.188
6.933187246322632,0,0,25158,1572.375
6.937307357788086,0,0,25158,1572.375
6.941148996353149,0,0,25152,1572.000
6.9451539516448975,0,0,25152,1572.000
6.949148893356323,0,0,25155,1572.188
6.953141450881958,0,0,25159,1572.438
6.957136392593384,0,0,25158,1572.375
6.961148738861084,0,0,25152,1572.000
6.96514892578125,0,0,25152,1572.000
6.969144821166992,0,0,25155,1572.188
6.973149538040161,0,0,25159,1572.438
6.977144956588745,0,0,25158,1572.375
6.98114800453186,0,0,25153,1572.062
6.98514723777771,0,0,25151,1571.938
6.989146709442139,0,0,25155,1572.188
6.99314546585083,0,0,25159,1572.438
6.9971442222595215,0,0,25157,1572.312
7.001146078109741,0,0,25153,1572.062
7.005146741867065,0,0,25152,1572.000
7.009146451950073,0,0,25155,1572.188
7.013145685195923,0,0,25158,1572.375
7.0171425342559814,0,0,25157,1572.312
7.0211474895477295,0,0,25153,1572.062
7.025148868560791,0,0,25152,1572.000
7.029147386550903,0,0,25154,1572.125
7.033143520355225,0,0,25158,1572.375
7.037225246429443,0,0,25158,1572.375
7.0478386878967285,0,0,25156,1572.250
7.04924201965332,0,0,25156,1572.250
7.053207874298096,0,0,25158,1572.375
7.057189464569092,0,0,25158,1572.375
7.061190843582153,0,0,25153,1572.062
7.0651867389678955,0,0,25154,1572.125
7.0691893100738525,0,0,25158,1572.375
7.073190927505493,0,0,25158,1572.375
7.077184438705444,0,0,25153,1572.062
7.081187725067139,0,0,25152,1572.000
7.085193872451782,0,0,25155,1572.188
7.089191198348999,0,0,25158,1572.375
7.093188285827637,0,0,25158,1572.375
7.097184896469116,0,0,25153,1572.062
7.101189613342285,0,0,25152,1572.000
7.10519003868103,0,0,25154,1572.125
7.109187602996826,0,0,25158,1572.375
7.113183259963989,0,0,25158,1572.375
7.117171049118042,0,0,25153,1572.062
7.121173620223999,0,0,25152,1572.000
7.125197172164917,0,0,25154,1572.125
7.129192113876343,0,0,25158,1572.375
7.13319206237793,0,0,25158,1572.375
7.137282848358154,0,0,25154,1572.125
7.141155958175659,0,0,25152,1572.000
7.145505666732788,0,0,25154,1572.125
7.149327993392944,0,0,25159,1572.438
7.153180837631226,0,0,25158,1572.375
7.1571478843688965,0,0,25154,1572.125
7.161148548126221,0,0,25152,1572.000
7.165151596069336,0,0,25154,1572.125
7.169149398803711,0,0,25158,1572.375
7.173149108886719,0,0,25158,1572.375
7.177147388458252,0,0,25154,1572.125
7.181147575378418,0,0,25152,1572.000
7.185149669647217,0,0,25154,1572.125
7.18915057182312,0,0,25158,1572.375
7.193153142929077,0,0,25158,1572.375
7.197147607803345,0,0,25154,1572.125
7.2011494636535645,0,0,25152,1572.000
7.205143690109253,0,0,25153,1572.062
7.209144830703735,0,0,25158,1572.375
7.2131688594818115,0,0,25159,1572.438
7.217149496078491,0,0,25154,1572.125
7.221146106719971,0,0,25152,1572.000
7.225146293640137,0,0,25153,1572.062
7.229148626327515,0,0,25158,1572.375
7.233148097991943,0,0,25158,1572.375
7.237258672714233,0,0,25154,1572.125
7.24118971824646,0,0,25152,1572.000
7.245185375213623,0,0,25154,1572.125
7.249186992645264,0,0,25158,1572.375
7.253201484680176,0,0,25158,1572.375
7.257187604904175,0,0,25154,1572.125
7.261187553405762,0,0,25152,1572.000
7.2651917934417725,0,0,25153,1572.062
7.26918625831604,0,0,25157,1572.312
7.273191452026367,0,0,25158,1572.375
7.277185916900635,0,0,25155,1572.188
7.281185626983643,0,0,25152,1572.000
7.285193920135498,0,0,25153,1572.062
7.289186716079712,0,0,25158,1572.375
7.293189764022827,0,0,25158,1572.375
7.297186374664307,0,0,25155,1572.188
7.301185607910156,0,0,25152,1572.000
7.305191278457642,0,0,25152,1572.000
7.30918550491333,0,0,25157,1572.312
7.3131935596466064,0,0,25159,1572.438
7.317189693450928,0,0,25152,1572.000
7.321191072463989,0,0,25152,1572.000
7.325194358825684,0,0,25157,1572.312
7.329190969467163,0,0,25159,1572.438
7.333194255828857,0,0,25156,1572.250
7.337276935577393,0,0,25152,1572.000
7.341157913208008,0,0,25152,1572.000
7.345155954360962,0,0,25158,1572.375
7.349156856536865,0,0,25159,1572.438
7.353155851364136,0,0,25155,1572.188
7.357151508331299,0,0,25152,1572.000
7.361152410507202,0,0,25153,1572.062
7.365149974822998,0,0,25157,1572.312
7.369150400161743,0,0,25158,1572.375
7.373154640197754,0,0,25155,1572.188
7.377151250839233,0,0,25152,1572.000
7.381150007247925,0,0,25153,1572.062
7.385154962539673,0,0,25157,1572.312
7.389154434204102,0,0,25159,1572.438
7.39314603805542,0,0,25156,1572.250
7.397146940231323,0,0,25152,1572.000
7.401149272918701,0,0,25152,1572.000
7.405156850814819,0,0,25157,1572.312
7.409152269363403,0,0,25158,1572.375
7.413152456283569,0,0,25156,1572.250
7.417149782180786,0,0,25151,1571.938
7.421148777008057,0,0,25152,1572.000
7.425154447555542,0,0,25157,1572.312
7.429150104522705,0,0,25159,1572.438
7.433145046234131,0,0,25156,1572.250
7.437223196029663,0,0,25152,1572.000
7.441193103790283,0,0,25153,1572.062
7.445189476013184,0,0,25157,1572.312
7.449190616607666,0,0,25158,1572.375
7.453181982040405,0,0,25156,1572.250
7.457172870635986,0,0,25152,1572.000
7.461171627044678,0,0,25153,1572.062
7.465189218521118,0,0,25157,1572.312
7.469189882278442,0,0,25159,1572.438
7.4731926918029785,0,0,25156,1572.250
7.477187156677246,0,0,25152,1572.000
7.48118782043457,0,0,25152,1572.000
7.485189437866211,0,0,25157,1572.312
7.489189624786377,0,0,25159,1572.438
7.493190288543701,0,0,25156,1572.250
7.497186183929443,0,0,25152,1572.000
7.5011887550354,0,0,25152,1572.000
7.505194902420044,0,0,25157,1572.312
7.509191274642944,0,0,25159,1572.438
7.5131916999816895,0,0,25157,1572.312
7.517187595367432,0,0,25152,1572.000
7.521188497543335,0,0,25152,1572.000
7.5251853466033936,0,0,25157,1572.312
7.529187917709351,0,0,25159,1572.438
7.533191204071045,0,0,25157,1572.312
7.537264823913574,0,0,25152,1572.000
7.541153907775879,0,0,25151,1571.938
7.545154809951782,0,0,25156,1572.250
7.549147605895996,0,0,25158,1572.375
7.553151369094849,0,0,25157,1572.312
7.557149171829224,0,0,25152,1572.000
7.561147451400757,0,0,25152,1572.000
7.565147638320923,0,0,25156,1572.250
7.569150447845459,0,0,25159,1572.438
7.573157548904419,0,0,25157,1572.312
7.577136754989624,0,0,25152,1572.000
7.581135511398315,0,0,25152,1572.000
7.585148334503174,0,0,25156,1572.250
7.5891499519348145,0,0,25158,1572.375
7.593142747879028,0,0,25153,1572.062
7.597134351730347,0,0,25152,1572.000
7.601132869720459,0,0,25155,1572.188
7.6051530838012695,0,0,25159,1572.438
7.609147548675537,0,0,25157,1572.312
7.613150358200073,0,0,25153,1572.062
7.617175817489624,0,0,25152,1572.000
7.621187686920166,0,0,25155,1572.188
7.625290632247925,0,0,25158,1572.375
7.629332065582275,0,0,25157,1572.312
7.633174180984497,0,0,25153,1572.062
7.637179374694824,0,0,25152,1572.000
7.641138076782227,0,0,25156,1572.250
7.645227432250977,0,0,25159,1572.438
7.649164438247681,0,0,25157,1572.312
7.653149366378784,0,0,25153,1572.062
7.6571455001831055,0,0,25152,1572.000
7.6611456871032715,0,0,25155,1572.188
7.6651551723480225,0,0,25159,1572.438
7.669150114059448,0,0,25157,1572.312
7.673150062561035,0,0,25153,1572.062
7.6771440505981445,0,0,25152,1572.000
7.6811442375183105,0,0,25155,1572.188
7.685152769088745,0,0,25158,1572.375
7.689148187637329,0,0,25158,1572.375
7.693144083023071,0,0,25153,1572.062
7.697134256362915,0,0,25151,1571.938
7.70113468170166,0,0,25155,1572.188
7.705137491226196,0,0,25159,1572.438
7.709133148193359,0,0,25158,1572.375
7.713165521621704,0,0,25153,1572.062
7.717146396636963,0,0,25152,1572.000
7.721143484115601,0,0,25155,1572.188
7.725148916244507,0,0,25158,1572.375
7.7291460037231445,0,0,25158,1572.375
7.733147144317627,0,0,25153,1572.062
7.737252950668335,0,0,25152,1572.000
7.7411885261535645,0,0,25154,1572.125
7.745188236236572,0,0,25159,1572.438
7.749199390411377,0,0,25158,1572.375
7.753191232681274,0,0,25153,1572.062
7.757182359695435,0,0,25152,1572.000
7.761196613311768,0,0,25154,1572.125
7.765194416046143,0,0,25158,1572.375
7.769183874130249,0,0,25158,1572.375
7.773188829421997,0,0,25153,1572.062
7.777182102203369,0,0,25152,1572.000
7.781184196472168,0,0,25155,1572.188
7.785187482833862,0,0,25159,1572.438
7.789183855056763,0,0,25158,1572.375
7.793184757232666,0,0,25153,1572.062
7.797182321548462,0,0,25152,1572.000
7.801182270050049,0,0,25154,1572.125
7.8051862716674805,0,0,25159,1572.438
7.809181451797485,0,0,25158,1572.375
7.813188314437866,0,0,25154,1572.125
7.817180395126343,0,0,25152,1572.000
7.821181535720825,0,0,25154,1572.125
7.825182199478149,0,0,25158,1572.375
7.829166650772095,0,0,25158,1572.375
7.833194732666016,0,0,25154,1572.125
7.8372721672058105,0,0,25152,1572.000
7.841151475906372,0,0,25154,1572.125
7.845149755477905,0,0,25158,1572.375
7.849144220352173,0,0,25158,1572.375
7.853147745132446,0,0,25154,1572.125
7.85714054107666,0,0,25152,1572.000
7.861140251159668,0,0,25158,1572.375
7.865149259567261,0,0,25158,1572.375
7.869142532348633,0,0,25154,1572.125
7.873147249221802,0,0,25152,1572.000
7.877142429351807,0,0,25153,1572.062
7.8811421394348145,0,0,25158,1572.375
7.885149002075195,0,0,25159,1572.438
7.889142990112305,0,0,25154,1572.125
7.893146276473999,0,0,25152,1572.000
7.897141456604004,0,0,25154,1572.125
7.901140213012695,0,0,25158,1572.375
7.905146598815918,0,0,25158,1572.375
7.909128189086914,0,0,25154,1572.125
7.913158655166626,0,0,25152,1572.000
7.917142391204834,0,0,25153,1572.062
7.9211437702178955,0,0,25158,1572.375
7.92514705657959,0,0,25159,1572.438
7.929142475128174,0,0,25155,1572.188
7.933144569396973,0,0,25151,1571.938
7.937226057052612,0,0,25153,1572.062
7.9411842823028564,0,0,25158,1572.375
7.9451820850372314,0,0,25158,1572.375
7.949179172515869,0,0,25155,1572.188
7.953169107437134,0,0,25152,1572.000
7.957165718078613,0,0,25153,1572.062
7.961165428161621,0,0,25158,1572.375
7.965182065963745,0,0,25158,1572.375
7.969180107116699,0,0,25155,1572.188
7.973185300827026,0,0,25152,1572.000
7.977181911468506,0,0,25153,1572.062
7.981182336807251,0,0,25158,1572.375
7.98518180847168,0,0,25159,1572.438
7.989179372787476,0,0,25155,1572.188
7.993183135986328,0,0,25152,1572.000
7.9971795082092285,0,0,25153,1572.062
8.00117802619934,0,0,25158,1572.375
8.005184173583984,0,0,25158,1572.375
8.009179830551147,0,0,25155,1572.188
8.013182640075684,0,0,25152,1572.000
8.01717734336853,0,0,25152,1572.000
8.021178483963013,0,0,25158,1572.375
8.025182723999023,0,0,25159,1572.438
8.029180526733398,0,0,25156,1572.250
8.033182144165039,0,0,25152,1572.000
8.03725790977478,0,0,25152,1572.000
8.04114556312561,0,0,25157,1572.312
8.050429582595825,0,0,25152,1572.000
8.053200006484985,0,0,25152,1572.000
8.057147026062012,0,0,25152,1572.000
8.061139345169067,0,0,25157,1572.312
8.06514048576355,0,0,25159,1572.438
8.069140434265137,0,0,25156,1572.250
8.073146104812622,0,0,25151,1571.938
8.07714033126831,0,0,25153,1572.062
8.081138610839844,0,0,25157,1572.312
8.085144519805908,0,0,25158,1572.375
8.089140892028809,0,0,25156,1572.250
8.093144416809082,0,0,25152,1572.000
8.097138166427612,0,0,25153,1572.062
8.101140260696411,0,0,25158,1572.375
8.105140686035156,0,0,25159,1572.438
8.109140157699585,0,0,25156,1572.250
8.113141775131226,0,0,25153,1572.062
8.1171395778656,0,0,25153,1572.062
8.121138572692871,0,0,25157,1572.312
8.125139951705933,0,0,25158,1572.375
8.129142761230469,0,0,25157,1572.312
8.133142471313477,0,0,25152,1572.000
8.137175559997559,0,0,25157,1572.312
8.141138792037964,0,0,25158,1572.375
8.145469188690186,0,0,25156,1572.250
8.149320840835571,0,0,25152,1572.000
8.153162240982056,0,0,25152,1572.000
8.157137632369995,0,0,25156,1572.250
8.161137580871582,0,0,25159,1572.438
8.165140628814697,0,0,25156,1572.250
8.16913628578186,0,0,25152,1572.000
8.17313814163208,0,0,25152,1572.000
8.177136421203613,0,0,25157,1572.312
8.181137084960938,0,0,25159,1572.438
8.185137510299683,0,0,25157,1572.312
8.189138889312744,0,0,25152,1572.000
8.193145036697388,0,0,25152,1572.000
8.197137594223022,0,0,25157,1572.312
8.20113468170166,0,0,25159,1572.438
8.20513653755188,0,0,25157,1572.312
8.20913290977478,0,0,25152,1572.000
8.213156461715698,0,0,25152,1572.000
8.217138051986694,0,0,25156,1572.250
8.221136331558228,0,0,25159,1572.438
8.225139379501343,0,0,25157,1572.312
8.229138851165771,0,0,25153,1572.062
8.233142614364624,0,0,25153,1572.062
8.237253904342651,0,0,25156,1572.250
8.241179466247559,0,0,25159,1572.438
8.245188474655151,0,0,25157,1572.312
8.249167442321777,0,0,25152,1572.000
8.25319528579712,0,0,25152,1572.000
8.257174491882324,0,0,25156,1572.250
8.261178016662598,0,0,25159,1572.438
8.265191793441772,0,0,25157,1572.312
8.269179582595825,0,0,25153,1572.062
8.273172378540039,0,0,25153,1572.062
8.277161121368408,0,0,25157,1572.312
8.281250715255737,0,0,25159,1572.438
8.285183906555176,0,0,25157,1572.312
8.289182662963867,0,0,25153,1572.062
8.294527292251587,0,0,25153,1572.062
8.29724383354187,0,0,25156,1572.250
8.30117678642273,0,0,25159,1572.438
8.305180072784424,0,0,25157,1572.312
8.309163808822632,0,0,25153,1572.062
8.31319808959961,0,0,25152,1572.000
8.317179679870605,0,0,25156,1572.250
8.32118844985962,0,0,25159,1572.438
8.325194358825684,0,0,25157,1572.312
8.329185009002686,0,0,25153,1572.062
8.333267211914062,0,0,25152,1572.000
8.337294340133667,0,0,25155,1572.188
8.341137170791626,0,0,25159,1572.438
8.345144987106323,0,0,25158,1572.375
8.349223852157593,0,0,25152,1572.000
8.35314655303955,0,0,25152,1572.000
8.357128620147705,0,0,25155,1572.188
8.361128091812134,0,0,25158,1572.375
8.365148067474365,0,0,25158,1572.375
8.369140625,0,0,25153,1572.062
8.373135805130005,0,0,25152,1572.000
8.377126216888428,0,0,25155,1572.188
8.381128311157227,0,0,25158,1572.375
8.385146856307983,0,0,25158,1572.375
8.389143943786621,0,0,25153,1572.062
8.393147706985474,0,0,25152,1572.000
8.397140979766846,0,0,25155,1572.188
8.401141881942749,0,0,25159,1572.438
8.40514588356018,0,0,25158,1572.375
8.409140348434448,0,0,25152,1572.000
8.413133382797241,0,0,25155,1572.188
8.417128562927246,0,0,25158,1572.375
8.42112946510315,0,0,25158,1572.375
8.425142049789429,0,0,25153,1572.062
8.429142951965332,0,0,25152,1572.000
8.433145523071289,0,0,25155,1572.188
8.43723726272583,0,0,25159,1572.438
8.441183805465698,0,0,25158,1572.375
8.445179462432861,0,0,25153,1572.062
8.449182033538818,0,0,25152,1572.000
8.45317006111145,0,0,25155,1572.188
8.457165479660034,0,0,25159,1572.438
8.461164236068726,0,0,25158,1572.375
8.46518087387085,0,0,25154,1572.125
8.4691801071167,0,0,25153,1572.062
8.473183393478394,0,0,25154,1572.125
8.47717833518982,0,0,25159,1572.438
8.481178522109985,0,0,25158,1572.375
8.485183715820312,0,0,25154,1572.125
8.489180564880371,0,0,25152,1572.000
8.49318242073059,0,0,25154,1572.125
8.497177600860596,0,0,25158,1572.375
8.501177549362183,0,0,25158,1572.375
8.505181312561035,0,0,25153,1572.062
8.50917649269104,0,0,25152,1572.000
8.513182163238525,0,0,25154,1572.125
8.51717734336853,0,0,25158,1572.375
8.521177530288696,0,0,25158,1572.375
8.525177240371704,0,0,25154,1572.125
8.52917766571045,0,0,25152,1572.000
8.533183097839355,0,0,25154,1572.125
8.537260055541992,0,0,25158,1572.375
8.541148900985718,0,0,25158,1572.375
8.545145750045776,0,0,25154,1572.125
8.54913854598999,0,0,25152,1572.000
8.55314302444458,0,0,25154,1572.125
8.557139158248901,0,0,25158,1572.375
8.561139822006226,0,0,25158,1572.375
8.565136671066284,0,0,25154,1572.125
8.569139003753662,0,0,25152,1572.000
8.573143482208252,0,0,25153,1572.062
8.577138423919678,0,0,25158,1572.375
8.581137418746948,0,0,25158,1572.375
8.585140466690063,0,0,25155,1572.188
8.589140176773071,0,0,25152,1572.000
8.593142747879028,0,0,25154,1572.125
8.597136735916138,0,0,25158,1572.375
8.601136207580566,0,0,25158,1572.375
8.60513973236084,0,0,25154,1572.125
8.609139204025269,0,0,25152,1572.000
8.61314058303833,0,0,25153,1572.062
8.617136240005493,0,0,25158,1572.375
8.621137857437134,0,0,25159,1572.438
8.625143051147461,0,0,25155,1572.188
8.62913727760315,0,0,25151,1571.938
8.63313913345337,0,0,25153,1572.062
8.637221813201904,0,0,25158,1572.375
8.641180276870728,0,0,25158,1572.375
8.645176887512207,0,0,25155,1572.188
8.649176836013794,0,0,25152,1572.000
8.653182029724121,0,0,25153,1572.062
8.657175540924072,0,0,25158,1572.375
8.661175012588501,0,0,25158,1572.375
8.665179252624512,0,0,25155,1572.188
8.669178247451782,0,0,25152,1572.000
8.67318058013916,0,0,25153,1572.062
8.67717719078064,0,0,25157,1572.312
8.681175470352173,0,0,25159,1572.438
8.6851806640625,0,0,25155,1572.188
8.689178466796875,0,0,25152,1572.000
8.6931791305542,0,0,25153,1572.062
8.697174787521362,0,0,25159,1572.438
8.701174974441528,0,0,25155,1572.188
8.705172061920166,0,0,25151,1571.938
8.709162712097168,0,0,25153,1572.062
8.713176965713501,0,0,25158,1572.375
8.717161893844604,0,0,25158,1572.375
8.721174716949463,0,0,25156,1572.250
8.725185632705688,0,0,25152,1572.000
8.729178190231323,0,0,25153,1572.062
8.73318076133728,0,0,25158,1572.375
8.737250566482544,0,0,25159,1572.438
8.74114179611206,0,0,25156,1572.250
8.745141983032227,0,0,25152,1572.000
8.749138116836548,0,0,25153,1572.062
8.753141164779663,0,0,25158,1572.375
8.757136344909668,0,0,25159,1572.438
8.761137008666992,0,0,25156,1572.250
8.765136241912842,0,0,25152,1572.000
8.76913571357727,0,0,25152,1572.000
8.77314019203186,0,0,25157,1572.312
8.777135133743286,0,0,25159,1572.438
8.781136989593506,0,0,25156,1572.250
8.785150527954102,0,0,25152,1572.000
8.789135456085205,0,0,25153,1572.062
8.793138027191162,0,0,25157,1572.312
8.797135591506958,0,0,25159,1572.438
8.801138162612915,0,0,25156,1572.250
8.805140733718872,0,0,25152,1572.000
8.809136629104614,0,0,25152,1572.000
8.813140392303467,0,0,25157,1572.312
8.817137002944946,0,0,25159,1572.438
8.821135997772217,0,0,25156,1572.250
8.825139045715332,0,0,25152,1572.000
8.8291335105896,0,0,25152,1572.000
8.833139419555664,0,0,25157,1572.312
8.837165117263794,0,0,25159,1572.438
8.841176509857178,0,0,25157,1572.312
8.845179557800293,0,0,25152,1572.000
8.84916090965271,0,0,25153,1572.062
8.853187799453735,0,0,25157,1572.312
8.857175588607788,0,0,25159,1572.438
8.86117434501648,0,0,25157,1572.312
8.865189552307129,0,0,25152,1572.000
8.869173526763916,0,0,25153,1572.062
8.873178482055664,0,0,25157,1572.312
8.877174377441406,0,0,25159,1572.438
8.881173133850098,0,0,25157,1572.312
8.8851797580719,0,0,25152,1572.000
8.88917589187622,0,0,25153,1572.062
8.893177509307861,0,0,25156,1572.250
8.897172212600708,0,0,25159,1572.438
8.90117335319519,0,0,25157,1572.312
8.905179977416992,0,0,25152,1572.000
8.90917158126831,0,0,25152,1572.000
8.913177728652954,0,0,25157,1572.312
8.9171724319458,0,0,25158,1572.375
8.921172142028809,0,0,25157,1572.312
8.925169229507446,0,0,25152,1572.000
8.929157972335815,0,0,25152,1572.000
8.933185815811157,0,0,25156,1572.250
8.93730115890503,0,0,25159,1572.438
8.941139221191406,0,0,25157,1572.312
8.945137023925781,0,0,25153,1572.062
8.949133157730103,0,0,25152,1572.000
8.953126907348633,0,0,25156,1572.250
8.95712161064148,0,0,25159,1572.438
8.961122989654541,0,0,25157,1572.312
8.965134859085083,0,0,25153,1572.062
8.96913480758667,0,0,25152,1572.000
8.973138093948364,0,0,25156,1572.250
8.97713303565979,0,0,25159,1572.438
8.981132507324219,0,0,25157,1572.312
8.985132932662964,0,0,25153,1572.062
8.989132642745972,0,0,25156,1572.250
8.993132829666138,0,0,25159,1572.438
8.997131586074829,0,0,25158,1572.375
9.001132726669312,0,0,25152,1572.000
9.00513768196106,0,0,25152,1572.000
9.009132862091064,0,0,25156,1572.250
9.013136148452759,0,0,25159,1572.438
9.017131090164185,0,0,25158,1572.375
9.021130561828613,0,0,25153,1572.062
9.025134086608887,0,0,25152,1572.000
9.029132604598999,0,0,25156,1572.250
9.033126831054688,0,0,25159,1572.438
9.037180423736572,0,0,25158,1572.375
9.041164875030518,0,0,25153,1572.062
9.045179605484009,0,0,25152,1572.000
9.067570447921753,0,0,25153,1572.062
9.069227695465088,0,0,25155,1572.188
9.073187828063965,0,0,25159,1572.438
9.07717227935791,0,0,25158,1572.375
9.08117127418518,0,0,25153,1572.062
9.085176229476929,0,0,25152,1572.000
9.089172601699829,0,0,25155,1572.188
9.09317398071289,0,0,25159,1572.438
9.09717059135437,0,0,25158,1572.375
9.101170539855957,0,0,25153,1572.062
9.105170249938965,0,0,25152,1572.000
9.109168291091919,0,0,25155,1572.188
9.113175630569458,0,0,25159,1572.438
9.117169857025146,0,0,25158,1572.375
9.121171951293945,0,0,25153,1572.062
9.125175476074219,0,0,25153,1572.062
9.129172325134277,0,0,25155,1572.188
9.133172750473022,0,0,25159,1572.438
9.137255907058716,0,0,25158,1572.375
9.141134262084961,0,0,25153,1572.062
9.145459413528442,0,0,25152,1572.000
9.149319648742676,0,0,25154,1572.125
9.153160572052002,0,0,25158,1572.375
9.157127618789673,0,0,25158,1572.375
9.161128282546997,0,0,25153,1572.062
9.165132284164429,0,0,25152,1572.000
9.169128656387329,0,0,25154,1572.125
9.173129558563232,0,0,25159,1572.438
9.17712664604187,0,0,25158,1572.375
9.181128025054932,0,0,25153,1572.062
9.185128927230835,0,0,25152,1572.000
9.18912672996521,0,0,25154,1572.125
9.193131446838379,0,0,25158,1572.375
9.197126865386963,0,0,25158,1572.375
9.20112657546997,0,0,25153,1572.062
9.20545506477356,0,0,25152,1572.000
9.209333181381226,0,0,25154,1572.125
9.21327257156372,0,0,25158,1572.375
9.217133522033691,0,0,25159,1572.438
9.221115112304688,0,0,25154,1572.125
9.22512149810791,0,0,25152,1572.000
9.229117631912231,0,0,25153,1572.062
9.233131170272827,0,0,25158,1572.375
9.23715877532959,0,0,25158,1572.375
9.241118907928467,0,0,25154,1572.125
9.245137214660645,0,0,25152,1572.000
9.249133825302124,0,0,25154,1572.125
9.253137350082397,0,0,25158,1572.375
9.257143020629883,0,0,25159,1572.438
9.261133909225464,0,0,25154,1572.125
9.265122413635254,0,0,25152,1572.000
9.269133806228638,0,0,25154,1572.125
9.273220300674438,0,0,25158,1572.375
9.27714729309082,0,0,25159,1572.438
9.28116512298584,0,0,25152,1572.000
9.285322666168213,0,0,25154,1572.125
9.289183378219604,0,0,25158,1572.375
9.293139696121216,0,0,25159,1572.438
9.297115087509155,0,0,25154,1572.125
9.301153182983398,0,0,25152,1572.000
9.305128812789917,0,0,25154,1572.125
9.30911922454834,0,0,25158,1572.375
9.313194513320923,0,0,25159,1572.438
9.317156076431274,0,0,25155,1572.188
9.321135997772217,0,0,25152,1572.000
9.32513427734375,0,0,25153,1572.062
9.329134702682495,0,0,25158,1572.375
9.333131551742554,0,0,25159,1572.438
9.337170124053955,0,0,25155,1572.188
9.341156959533691,0,0,25152,1572.000
9.345136404037476,0,0,25153,1572.062
9.349131345748901,0,0,25158,1572.375
9.353134870529175,0,0,25159,1572.438
9.35714316368103,0,0,25155,1572.188
9.361133575439453,0,0,25152,1572.000
9.365132570266724,0,0,25153,1572.062
9.369121551513672,0,0,25158,1572.375
9.373160600662231,0,0,25158,1572.375
9.377133131027222,0,0,25155,1572.188
9.381133079528809,0,0,25152,1572.000
9.385135650634766,0,0,25153,1572.062
9.389130115509033,0,0,25158,1572.375
9.393135070800781,0,0,25159,1572.438
9.397128105163574,0,0,25156,1572.250
9.40113091468811,0,0,25152,1572.000
9.405139684677124,0,0,25153,1572.062
9.409132719039917,0,0,25158,1572.375
9.413132190704346,0,0,25159,1572.438
9.417130947113037,0,0,25155,1572.188
9.421130418777466,0,0,25152,1572.000
9.425134420394897,0,0,25153,1572.062
9.42913007736206,0,0,25158,1572.375
9.433127641677856,0,0,25159,1572.438
9.43721866607666,0,0,25156,1572.250
9.44115924835205,0,0,25152,1572.000
9.445173501968384,0,0,25153,1572.062
9.449170112609863,0,0,25157,1572.312
9.453166723251343,0,0,25159,1572.438
9.457153797149658,0,0,25155,1572.188
9.461167812347412,0,0,25153,1572.062
9.46517014503479,0,0,25153,1572.062
9.469170570373535,0,0,25157,1572.312
9.473176717758179,0,0,25158,1572.375
9.477169513702393,0,0,25156,1572.250
9.481171131134033,0,0,25152,1572.000
9.485175609588623,0,0,25152,1572.000
9.48917007446289,0,0,25157,1572.312
9.493172645568848,0,0,25158,1572.375
9.497166872024536,0,0,25156,1572.250
9.501168966293335,0,0,25152,1572.000
9.505171060562134,0,0,25152,1572.000
9.509167194366455,0,0,25158,1572.375
9.513171195983887,0,0,25159,1572.438
9.517167568206787,0,0,25156,1572.250
9.521165132522583,0,0,25152,1572.000
9.525170803070068,0,0,25153,1572.062
9.529169797897339,0,0,25157,1572.312
9.53317666053772,0,0,25159,1572.438
9.53724718093872,0,0,25157,1572.312
9.541146755218506,0,0,25152,1572.000
9.545137405395508,0,0,25153,1572.062
9.5491304397583,0,0,25157,1572.312
9.55313229560852,0,0,25159,1572.438
9.55712890625,0,0,25156,1572.250
9.561128616333008,0,0,25152,1572.000
9.565130233764648,0,0,25152,1572.000
9.569128274917603,0,0,25157,1572.312
9.57313060760498,0,0,25158,1572.375
9.577131271362305,0,0,25157,1572.312
9.581127643585205,0,0,25153,1572.062
9.585132122039795,0,0,25152,1572.000
9.589130401611328,0,0,25159,1572.438
9.59312891960144,0,0,25157,1572.312
9.59712529182434,0,0,25152,1572.000
9.601128339767456,0,0,25152,1572.000
9.605130672454834,0,0,25156,1572.250
9.609127521514893,0,0,25159,1572.438
9.613125801086426,0,0,25157,1572.312
9.61712646484375,0,0,25152,1572.000
9.621129035949707,0,0,25153,1572.062
9.625131607055664,0,0,25157,1572.312
9.629127025604248,0,0,25159,1572.438
9.633127450942993,0,0,25157,1572.312
9.637208938598633,0,0,25153,1572.062
9.641169548034668,0,0,25152,1572.000
9.645164489746094,0,0,25156,1572.250
9.64916443824768,0,0,25159,1572.438
9.653167963027954,0,0,25157,1572.312
9.657167673110962,0,0,25153,1572.062
9.661163806915283,0,0,25152,1572.000
9.665167093276978,0,0,25156,1572.250
9.669170379638672,0,0,25159,1572.438
9.673171520233154,0,0,25157,1572.312
9.677168130874634,0,0,25153,1572.062
9.681164503097534,0,0,25152,1572.000
9.685166835784912,0,0,25156,1572.250
9.68916630744934,0,0,25159,1572.438
9.693169593811035,0,0,25158,1572.375
9.697166442871094,0,0,25152,1572.000
9.701165914535522,0,0,25152,1572.000
9.705159664154053,0,0,25156,1572.250
9.70914912223816,0,0,25159,1572.438
9.713176250457764,0,0,25158,1572.375
9.71716594696045,0,0,25153,1572.062
9.721165180206299,0,0,25152,1572.000
9.725166082382202,0,0,25155,1572.188
9.729166984558105,0,0,25160,1572.500
9.733171939849854,0,0,25158,1572.375
9.737241744995117,0,0,25153,1572.062
9.741133213043213,0,0,25152,1572.000
9.745133399963379,0,0,25156,1572.250
9.749125719070435,0,0,25159,1572.438
9.753119468688965,0,0,25158,1572.375
9.757114887237549,0,0,25153,1572.062
9.761114358901978,0,0,25152,1572.000
9.765128374099731,0,0,25155,1572.188
9.769126415252686,0,0,25159,1572.438
9.773130178451538,0,0,25158,1572.375
9.77712607383728,0,0,25153,1572.062
9.781126737594604,0,0,25152,1572.000
9.785129070281982,0,0,25156,1572.250
9.789127111434937,0,0,25159,1572.438
9.79312515258789,0,0,25159,1572.438
9.79712462425232,0,0,25154,1572.125
9.801125526428223,0,0,25152,1572.000
9.8051278591156,0,0,25155,1572.188
9.809126615524292,0,0,25159,1572.438
9.8131263256073,0,0,25158,1572.375
9.817123651504517,0,0,25154,1572.125
9.821125984191895,0,0,25152,1572.000
9.825128555297852,0,0,25155,1572.188
9.829123497009277,0,0,25159,1572.438
9.833125352859497,0,0,25158,1572.375
9.837218761444092,0,0,25154,1572.125
9.841170072555542,0,0,25152,1572.000
9.845169305801392,0,0,25155,1572.188
9.849165916442871,0,0,25159,1572.438
9.853167295455933,0,0,25159,1572.438
9.85716462135315,0,0,25154,1572.125
9.861163854598999,0,0,25152,1572.000
9.86516809463501,0,0,25155,1572.188
9.869147539138794,0,0,25159,1572.438
9.87317967414856,0,0,25159,1572.438
9.877164602279663,0,0,25154,1572.125
9.881163358688354,0,0,25152,1572.000
9.885162115097046,0,0,25155,1572.188
9.889165163040161,0,0,25159,1572.438
9.893168926239014,0,0,25159,1572.438
9.897163152694702,0,0,25152,1572.000
9.901161193847656,0,0,25155,1572.188
9.905166625976562,0,0,25159,1572.438
9.909163475036621,0,0,25159,1572.438
9.913167238235474,0,0,25154,1572.125
9.917163848876953,0,0,25152,1572.000
9.921162843704224,0,0,25155,1572.188
9.925161361694336,0,0,25159,1572.438
9.929161310195923,0,0,25159,1572.438
9.933167695999146,0,0,25155,1572.188
9.93721628189087,0,0,25152,1572.000
9.941128253936768,0,0,25154,1572.125
9.945122718811035,0,0,25159,1572.438
9.949110269546509,0,0,25159,1572.438
9.953125238418579,0,0,25155,1572.188
9.957112789154053,0,0,25153,1572.062
9.961111068725586,0,0,25154,1572.125
9.965124607086182,0,0,25158,1572.375
9.96912407875061,0,0,25159,1572.438
9.973130226135254,0,0,25155,1572.188
9.977123975753784,0,0,25152,1572.000
9.981122970581055,0,0,25154,1572.125
9.985126495361328,0,0,25159,1572.438
9.989123344421387,0,0,25159,1572.438
9.993131399154663,0,0,25155,1572.188
9.997125625610352,0,0,25152,1572.000
10.001136779785156,0,0,25154,1572.125
10.005125761032104,0,0,25159,1572.438
10.009124755859375,0,0,25158,1572.375
10.013126611709595,0,0,25155,1572.188
10.017119407653809,0,0,25153,1572.062
10.02112364768982,0,0,25154,1572.125
10.025126934051514,0,0,25158,1572.375
10.029122591018677,0,0,25159,1572.438
10.033125638961792,0,0,25155,1572.188
10.037212133407593,0,0,25152,1572.000
10.041165828704834,0,0,25154,1572.125
10.045169830322266,0,0,25159,1572.438
10.049164533615112,0,0,25159,1572.438
10.053165435791016,0,0,25155,1572.188
10.057158946990967,0,0,25152,1572.000
10.061161756515503,0,0,25154,1572.125
10.071719884872437,0,0,25156,1572.250
10.073215961456299,0,0,25156,1572.250
10.0771644115448,0,0,25152,1572.000
10.081162929534912,0,0,25153,1572.062
10.085170030593872,0,0,25158,1572.375
10.089174270629883,0,0,25159,1572.438
10.093165397644043,0,0,25156,1572.250
10.097163200378418,0,0,25152,1572.000
10.10116171836853,0,0,25154,1572.125
10.105162858963013,0,0,25158,1572.375
10.10915994644165,0,0,25159,1572.438
10.113166093826294,0,0,25156,1572.250
10.11715841293335,0,0,25152,1572.000
10.121158599853516,0,0,25153,1572.062
10.125167846679688,0,0,25158,1572.375
10.12916088104248,0,0,25159,1572.438
10.133164882659912,0,0,25156,1572.250
10.137261629104614,0,0,25152,1572.000
10.141124725341797,0,0,25153,1572.062
10.145459413528442,0,0,25158,1572.375
10.149307489395142,0,0,25159,1572.438
10.153154134750366,0,0,25156,1572.250
10.157127618789673,0,0,25152,1572.000
10.161121129989624,0,0,25153,1572.062
10.16512417793274,0,0,25158,1572.375
10.16911792755127,0,0,25159,1572.438
10.173122882843018,0,0,25156,1572.250
10.17713212966919,0,0,25153,1572.062
10.181120157241821,0,0,25153,1572.062
10.185121297836304,0,0,25158,1572.375
10.189119338989258,0,0,25159,1572.438
10.193122148513794,0,0,25156,1572.250
10.19711947441101,0,0,25152,1572.000
10.201120853424072,0,0,25153,1572.062
10.205119132995605,0,0,25159,1572.438
10.209108591079712,0,0,25157,1572.312
10.213137149810791,0,0,25153,1572.062
10.217119216918945,0,0,25152,1572.000
10.221119165420532,0,0,25157,1572.312
10.22512149810791,0,0,25159,1572.438
10.229120016098022,0,0,25157,1572.312
10.23311972618103,0,0,25153,1572.062
10.237229824066162,0,0,25153,1572.062
10.241177797317505,0,0,25157,1572.312
10.24516248703003,0,0,25159,1572.438
10.249150037765503,0,0,25157,1572.312
10.253175258636475,0,0,25152,1572.000
10.257740497589111,0,0,25153,1572.062
10.261395692825317,0,0,25157,1572.312
10.265170812606812,0,0,25159,1572.438
10.269156694412231,0,0,25157,1572.312
10.27315902709961,0,0,25153,1572.062
10.277220726013184,0,0,25153,1572.062
10.281165838241577,0,0,25157,1572.312
10.285153865814209,0,0,25160,1572.500
10.289167165756226,0,0,25157,1572.312
10.293149709701538,0,0,25152,1572.000
10.297148942947388,0,0,25152,1572.000
10.301139116287231,0,0,25157,1572.312
10.305153608322144,0,0,25159,1572.438
10.309130191802979,0,0,25157,1572.312
10.313153982162476,0,0,25152,1572.000
10.31714940071106,0,0,25152,1572.000
10.321155548095703,0,0,25157,1572.312
10.32515287399292,0,0,25159,1572.438
10.32915735244751,0,0,25158,1572.375
10.33316445350647,0,0,25153,1572.062
10.33719778060913,0,0,25152,1572.000
10.341155767440796,0,0,25157,1572.312
10.345150232315063,0,0,25159,1572.438
10.349162817001343,0,0,25158,1572.375
10.353156805038452,0,0,25153,1572.062
10.357147216796875,0,0,25152,1572.000
10.361149549484253,0,0,25156,1572.250
10.365155935287476,0,0,25158,1572.375
10.36916470527649,0,0,25158,1572.375
10.373156309127808,0,0,25153,1572.062
10.377148628234863,0,0,25152,1572.000
10.38115119934082,0,0,25156,1572.250
10.385150671005249,0,0,25159,1572.438
10.389162063598633,0,0,25158,1572.375
10.393152236938477,0,0,25153,1572.062
10.39714765548706,0,0,25152,1572.000
10.401153802871704,0,0,25156,1572.250
10.40515685081482,0,0,25160,1572.500
10.409162759780884,0,0,25158,1572.375
10.413150072097778,0,0,25153,1572.062
10.417146682739258,0,0,25152,1572.000
10.421149253845215,0,0,25156,1572.250
10.425150394439697,0,0,25159,1572.438
10.42916464805603,0,0,25158,1572.375
10.433152914047241,0,0,25153,1572.062
10.437221050262451,0,0,25152,1572.000
10.441119909286499,0,0,25156,1572.250
10.445122241973877,0,0,25159,1572.438
10.449131727218628,0,0,25158,1572.375
10.45311164855957,0,0,25153,1572.062
10.457103729248047,0,0,25153,1572.062
10.46110200881958,0,0,25156,1572.250
10.465115547180176,0,0,25159,1572.438
10.469125509262085,0,0,25159,1572.438
10.473114490509033,0,0,25153,1572.062
10.477109432220459,0,0,25152,1572.000
10.481115341186523,0,0,25156,1572.250
10.48511528968811,0,0,25159,1572.438
10.489123582839966,0,0,25158,1572.375
10.493113994598389,0,0,25154,1572.125
10.497110366821289,0,0,25152,1572.000
10.50111198425293,0,0,25155,1572.188
10.505110263824463,0,0,25159,1572.438
10.509124755859375,0,0,25159,1572.438
10.513115406036377,0,0,25154,1572.125
10.517108917236328,0,0,25153,1572.062
10.521110534667969,0,0,25156,1572.250
10.525114059448242,0,0,25159,1572.438
10.529124975204468,0,0,25154,1572.125
10.533115148544312,0,0,25153,1572.062
10.537198781967163,0,0,25155,1572.188
10.541152000427246,0,0,25159,1572.438
10.54514741897583,0,0,25159,1572.438
10.549159526824951,0,0,25154,1572.125
10.553152322769165,0,0,25153,1572.062
10.557144403457642,0,0,25155,1572.188
10.561147212982178,0,0,25160,1572.500
10.565150499343872,0,0,25159,1572.438
10.569129943847656,0,0,25154,1572.125
10.573151588439941,0,0,25152,1572.000
10.57714295387268,0,0,25155,1572.188
10.581148386001587,0,0,25159,1572.438
10.585143566131592,0,0,25159,1572.438
10.589158535003662,0,0,25154,1572.125
10.593149900436401,0,0,25153,1572.062
10.59714651107788,0,0,25154,1572.125
10.601149320602417,0,0,25160,1572.500
10.605149507522583,0,0,25159,1572.438
10.60915756225586,0,0,25155,1572.188
10.613149404525757,0,0,25152,1572.000
10.617146015167236,0,0,25155,1572.188
10.621147632598877,0,0,25159,1572.438
10.625145435333252,0,0,25159,1572.438
10.629158735275269,0,0,25155,1572.188
10.63315224647522,0,0,25152,1572.000
10.637149095535278,0,0,25155,1572.188
10.641116619110107,0,0,25159,1572.438
10.645115852355957,0,0,25159,1572.438
10.64912223815918,0,0,25155,1572.188
10.653112888336182,0,0,25152,1572.000
10.657109260559082,0,0,25154,1572.125
10.661110639572144,0,0,25159,1572.438
10.66511058807373,0,0,25160,1572.500
10.669127941131592,0,0,25155,1572.188
10.673113107681274,0,0,25153,1572.062
10.677118062973022,0,0,25155,1572.188
10.681110143661499,0,0,25159,1572.438
10.685109615325928,0,0,25159,1572.438
10.68912148475647,0,0,25155,1572.188
10.69310975074768,0,0,25153,1572.062
10.697105884552002,0,0,25154,1572.125
10.701109647750854,0,0,25159,1572.438
10.705106973648071,0,0,25159,1572.438
10.709108591079712,0,0,25156,1572.250
10.713121175765991,0,0,25153,1572.062
10.717108964920044,0,0,25154,1572.125
10.721109390258789,0,0,25159,1572.438
10.725111246109009,0,0,25159,1572.438
10.729123592376709,0,0,25156,1572.250
10.733112573623657,0,0,25152,1572.000
10.737191438674927,0,0,25154,1572.125
10.741153001785278,0,0,25159,1572.438
10.745152711868286,0,0,25159,1572.438
10.749155521392822,0,0,25156,1572.250
10.753149509429932,0,0,25152,1572.000
10.7571439743042,0,0,25154,1572.125
10.761144638061523,0,0,25158,1572.375
10.765149354934692,0,0,25160,1572.500
10.769158601760864,0,0,25156,1572.250
10.77314829826355,0,0,25153,1572.062
10.77714228630066,0,0,25154,1572.125
10.781146764755249,0,0,25158,1572.375
10.785146474838257,0,0,25160,1572.500
10.789155006408691,0,0,25156,1572.250
10.79314136505127,0,0,25153,1572.062
10.797136306762695,0,0,25154,1572.125
10.801133155822754,0,0,25159,1572.438
10.805147171020508,0,0,25160,1572.500
10.809157371520996,0,0,25156,1572.250
10.813150405883789,0,0,25153,1572.062
10.817143678665161,0,0,25153,1572.062
10.821144819259644,0,0,25158,1572.375
10.825146198272705,0,0,25160,1572.500
10.829129219055176,0,0,25157,1572.312
10.833147048950195,0,0,25153,1572.062
10.837248802185059,0,0,25154,1572.125
10.84111475944519,0,0,25159,1572.438
10.845113754272461,0,0,25160,1572.500
10.849119901657104,0,0,25157,1572.312
10.853108882904053,0,0,25153,1572.062
10.857105493545532,0,0,25159,1572.438
10.86110806465149,0,0,25160,1572.500
10.865112066268921,0,0,25157,1572.312
10.869120836257935,0,0,25153,1572.062
10.873109817504883,0,0,25154,1572.125
10.877104043960571,0,0,25158,1572.375
10.881107568740845,0,0,25159,1572.438
10.885120153427124,0,0,25157,1572.312
10.889119386672974,0,0,25153,1572.062
10.893105745315552,0,0,25154,1572.125
10.897104978561401,0,0,25159,1572.438
10.901109218597412,0,0,25160,1572.500
10.905108451843262,0,0,25157,1572.312
10.90911865234375,0,0,25153,1572.062
10.913108348846436,0,0,25153,1572.062
10.917105436325073,0,0,25158,1572.375
10.921108484268188,0,0,25160,1572.500
10.925105571746826,0,0,25157,1572.312
10.929118871688843,0,0,25153,1572.062
10.933103561401367,0,0,25153,1572.062
10.937190771102905,0,0,25158,1572.375
10.941148281097412,0,0,25160,1572.500
10.945147037506104,0,0,25157,1572.312
10.949155330657959,0,0,25153,1572.062
10.953140258789062,0,0,25153,1572.062
10.957130670547485,0,0,25157,1572.312
10.961130857467651,0,0,25160,1572.500
10.965133666992188,0,0,25158,1572.375
10.969141721725464,0,0,25153,1572.062
10.973152160644531,0,0,25153,1572.062
10.977140188217163,0,0,25158,1572.375
10.981143951416016,0,0,25160,1572.500
10.985142946243286,0,0,25158,1572.375
10.989152908325195,0,0,25153,1572.062
10.993143320083618,0,0,25153,1572.062
10.997140407562256,0,0,25158,1572.375
11.00114107131958,0,0,25159,1572.438
11.005138158798218,0,0,25158,1572.375
11.009154081344604,0,0,25153,1572.062
11.013147354125977,0,0,25153,1572.062
11.01714038848877,0,0,25158,1572.375
11.021141052246094,0,0,25160,1572.500
11.025143146514893,0,0,25158,1572.375
11.029154300689697,0,0,25153,1572.062
11.033144474029541,0,0,25153,1572.062
11.03724455833435,0,0,25157,1572.312
11.041109561920166,0,0,25160,1572.500
11.045103073120117,0,0,25158,1572.375
11.049116134643555,0,0,25153,1572.062
11.053107261657715,0,0,25153,1572.062
11.05710220336914,0,0,25157,1572.312
11.061104536056519,0,0,25160,1572.500
11.06510615348816,0,0,25159,1572.438
11.074546337127686,0,0,25157,1572.312
11.077150821685791,0,0,25157,1572.312
11.081111192703247,0,0,25159,1572.438
11.085103511810303,0,0,25158,1572.375
11.089093208312988,0,0,25153,1572.062
11.09311056137085,0,0,25153,1572.062
11.097100973129272,0,0,25157,1572.312
11.101102590560913,0,0,25160,1572.500
11.105104923248291,0,0,25158,1572.375
11.109116792678833,0,0,25154,1572.125
11.113104343414307,0,0,25153,1572.062
11.117100477218628,0,0,25156,1572.250
11.121104717254639,0,0,25160,1572.500
11.125103235244751,0,0,25159,1572.438
11.12911581993103,0,0,25154,1572.125
11.133103609085083,0,0,25153,1572.062
11.13713550567627,0,0,25157,1572.312
11.14110517501831,0,0,25160,1572.500
11.145445346832275,0,0,25159,1572.438
11.149295091629028,0,0,25154,1572.125
11.153127670288086,0,0,25153,1572.062
11.157103776931763,0,0,25156,1572.250
11.161103963851929,0,0,25159,1572.438
11.16509747505188,0,0,25159,1572.438
11.169106721878052,0,0,25154,1572.125
11.173110723495483,0,0,25153,1572.062
11.17709231376648,0,0,25156,1572.250
11.181095123291016,0,0,25159,1572.438
11.185102224349976,0,0,25154,1572.125
11.189115047454834,0,0,25153,1572.062
11.193104028701782,0,0,25156,1572.250
11.197101831436157,0,0,25159,1572.438
11.201104164123535,0,0,25159,1572.438
11.205293655395508,0,0,25154,1572.125
11.20910930633545,0,0,25153,1572.062
11.213107824325562,0,0,25156,1572.250
11.217093229293823,0,0,25160,1572.500
11.221091747283936,0,0,25159,1572.438
11.225094556808472,0,0,25154,1572.125
11.22910761833191,0,0,25153,1572.062
11.233105659484863,0,0,25156,1572.250
11.237199306488037,0,0,25159,1572.438
11.241135358810425,0,0,25159,1572.438
11.24515676498413,0,0,25154,1572.125
11.24915337562561,0,0,25153,1572.062
11.25313925743103,0,0,25156,1572.250
11.257134675979614,0,0,25160,1572.500
11.261181354522705,0,0,25160,1572.500
11.265174388885498,0,0,25154,1572.125
11.269144773483276,0,0,25153,1572.062
11.273321151733398,0,0,25155,1572.188
11.27728796005249,0,0,25160,1572.500
11.281150102615356,0,0,25159,1572.438
11.285146713256836,0,0,25155,1572.188
11.289182662963867,0,0,25153,1572.062
11.293195962905884,0,0,25155,1572.188
11.297146081924438,0,0,25159,1572.438
11.301153659820557,0,0,25159,1572.438
11.30513620376587,0,0,25155,1572.188
11.309142351150513,0,0,25153,1572.062
11.313151597976685,0,0,25155,1572.188
11.317138433456421,0,0,25159,1572.438
11.321138858795166,0,0,25159,1572.438
11.325136661529541,0,0,25155,1572.188
11.32914113998413,0,0,25153,1572.062
11.333158016204834,0,0,25155,1572.188
11.337246179580688,0,0,25159,1572.438
11.341117143630981,0,0,25159,1572.438
11.345109224319458,0,0,25155,1572.188
11.349095582962036,0,0,25153,1572.062
11.353108406066895,0,0,25154,1572.125
11.357104063034058,0,0,25159,1572.438
11.361104249954224,0,0,25159,1572.438
11.36510705947876,0,0,25155,1572.188
11.369116067886353,0,0,25152,1572.000
11.373103380203247,0,0,25154,1572.125
11.377112865447998,0,0,25159,1572.438
11.381105422973633,0,0,25160,1572.500
11.385106086730957,0,0,25155,1572.188
11.389112710952759,0,0,25152,1572.000
11.393105030059814,0,0,25155,1572.188
11.397102355957031,0,0,25159,1572.438
11.401106834411621,0,0,25160,1572.500
11.405107736587524,0,0,25155,1572.188
11.409114837646484,0,0,25153,1572.062
11.413103580474854,0,0,25154,1572.125
11.41710114479065,0,0,25159,1572.438
11.421104907989502,0,0,25159,1572.438
11.425106525421143,0,0,25155,1572.188
11.429117202758789,0,0,25153,1572.062
11.433105945587158,0,0,25154,1572.125
11.437196731567383,0,0,25159,1572.438
11.44114637374878,0,0,25159,1572.438
11.445148229598999,0,0,25155,1572.188
11.449156284332275,0,0,25153,1572.062
11.45313572883606,0,0,25154,1572.125
11.457130908966064,0,0,25159,1572.438
11.46112585067749,0,0,25160,1572.500
11.46514368057251,0,0,25155,1572.188
11.469152450561523,0,0,25153,1572.062
11.473140239715576,0,0,25153,1572.062
11.477131605148315,0,0,25159,1572.438
11.481129169464111,0,0,25159,1572.438
11.485140085220337,0,0,25156,1572.250
11.48917007446289,0,0,25153,1572.062
11.493156671524048,0,0,25154,1572.125
11.497141599655151,0,0,25159,1572.438
11.501141786575317,0,0,25159,1572.438
11.505141496658325,0,0,25156,1572.250
11.509198665618896,0,0,25153,1572.062
11.513169527053833,0,0,25154,1572.125
11.517141580581665,0,0,25158,1572.375
11.521257638931274,0,0,25156,1572.250
11.525221109390259,0,0,25153,1572.062
