Timestamp,LO_plus,LO_minus,Raw_ADC,Voltage_mV
1764842837.0374591,0,0,-1865,-233.125
1764842837.039284,0,0,-1865,-233.125
1764842837.040989,0,0,-1570,-196.250
1764842837.0434823,0,0,259,32.375
1764842837.0474896,0,1,1593,199.125
1764842837.051471,0,0,906,113.250
1764842837.0554674,0,0,-718,-89.750
1764842837.0594704,0,0,-633,-79.125
1764842837.063466,0,0,685,85.625
1764842837.0674708,1,0,1645,205.625
1764842837.071519,0,0,1442,180.250
1764842837.0754828,0,0,803,100.375
1764842837.079482,0,0,733,91.625
1764842837.08347,0,0,1323,165.375
1764842837.0874732,0,0,1728,216.000
1764842837.0914683,0,0,187,23.375
1764842837.0955184,0,0,-2162,-270.250
1764842837.0994816,0,0,-2078,-259.750
1764842837.103468,0,0,-186,-23.250
1764842837.1074812,0,0,1505,188.125
1764842837.1114814,0,0,1529,191.125
1764842837.1154783,0,0,679,84.875
1764842837.1195257,0,0,501,62.625
1764842837.123488,0,0,1145,143.125
1764842837.1274781,0,0,1699,212.375
1764842837.131467,0,0,903,112.875
1764842837.1354904,0,0,-862,-107.750
1764842837.1394796,0,0,-906,-113.250
1764842837.1434665,0,0,410,51.250
1764842837.1474771,0,0,1549,193.625
1764842837.151478,0,0,1423,177.875
1764842837.1554782,0,0,396,49.500
1764842837.1594741,0,0,166,20.750
1764842837.1634653,0,0,886,110.750
1764842837.1674786,1,0,1594,199.250
1764842837.1714776,0,0,1032,129.000
1764842837.175477,0,0,-673,-84.125
1764842837.1794794,0,0,-850,-106.250
1764842837.1834772,0,0,338,42.250
1764842837.187479,0,0,1462,182.750
1764842837.1914682,0,0,1089,136.125
1764842837.1954665,0,0,-163,-20.375
1764842837.1994798,0,0,-289,-36.125
1764842837.2034795,0,0,630,78.750
1764842837.207547,0,1,1524,190.500
1764842837.2114909,0,0,1466,183.250
1764842837.215524,0,0,731,91.375
1764842837.219488,0,0,457,57.125
1764842837.2234695,0,0,942,117.750
1764842837.2274766,0,0,1528,191.000
1764842837.2315543,0,0,739,92.375
1764842837.2354944,0,0,-1442,-180.250
1764842837.2394793,0,0,-1649,-206.125
1764842837.2434685,0,0,-200,-25.000
1764842837.24748,0,0,1287,160.875
1764842837.2514749,0,0,1139,142.375
1764842837.2555099,0,0,-712,-89.000
1764842837.2594929,0,0,-1133,-141.625
1764842837.2634857,0,0,-3,-0.375
1764842837.2674797,0,0,1291,161.375
1764842837.2714753,0,0,1466,183.250
1764842837.2754874,0,0,894,111.750
1764842837.279475,0,0,613,76.625
1764842837.2835062,0,0,976,122.000
1764842837.2875009,0,0,1534,191.750
1764842837.2914708,0,0,1384,173.000
1764842837.295465,0,0,597,74.625
1764842837.2994788,0,0,258,32.250
1764842837.3034778,0,0,704,88.000
1764842837.3074758,0,0,1404,175.500
1764842837.311467,0,0,1706,213.250
1764842837.3154638,0,0,2455,306.875
1764842837.3194785,0,0,2368,296.000
1764842837.3234782,0,0,1910,238.750
1764842837.3275309,0,0,1693,211.625
1764842837.3314886,0,0,955,119.375
1764842837.335473,0,0,-1109,-138.625
1764842837.3394697,0,0,-1684,-210.500
1764842837.3435216,0,0,-528,-66.000
1764842837.3474972,0,0,995,124.375
1764842837.3514667,0,0,1744,218.000
1764842837.3554666,0,0,2259,282.375
1764842837.3594763,0,0,2060,257.500
1764842837.3635075,0,0,1744,218.000
1764842837.3675032,0,0,1799,224.875
1764842837.3714676,0,0,2175,271.875
1764842837.3754659,0,0,3918,489.750
1764842837.3794765,0,0,4061,507.625
1764842837.3834724,0,0,2706,338.250
1764842837.387471,0,0,1568,196.000
1764842837.3914647,0,0,1419,177.375
1764842837.395519,0,0,3735,466.875
1764842837.399482,0,0,4418,552.250
1764842837.4034636,0,0,2949,368.625
1764842837.4074767,0,0,1462,182.750
1764842837.4114742,0,0,1055,131.875
1764842837.4154732,0,0,2837,354.625
1764842837.419471,0,0,3340,417.500
1764842837.4235198,0,0,2137,267.125
1764842837.4274867,0,0,997,124.625
1764842837.431533,0,0,851,106.375
1764842837.4354858,0,0,2799,349.875
1764842837.4394736,0,0,3320,415.000
1764842837.4434621,0,0,2047,255.875
1764842837.447476,0,0,847,105.875
1764842837.4514737,0,0,718,89.750
1764842837.4555202,0,0,3036,379.500
1764842837.459483,0,0,3742,467.750
1764842837.4634647,0,0,2296,287.000
1764842837.467469,0,0,849,106.125
1764842837.471463,0,0,524,65.500
1764842837.4755166,0,0,2503,312.875
1764842837.479479,0,0,3151,393.875
1764842837.4834652,0,0,1895,236.875
1764842837.487477,0,0,637,79.625
1764842837.4914737,0,0,305,38.125
1764842837.4954722,0,0,1458,182.250
1764842837.4994698,0,0,1778,222.250
1764842837.5035381,0,0,961,120.125
1764842837.5074878,0,0,265,33.125
1764842837.5114837,0,0,317,39.625
1764842837.5154634,0,0,2202,275.250
1764842837.519479,0,0,2856,357.000
1764842837.523502,0,0,1682,210.250
1764842837.5274837,0,0,473,59.125
1764842837.5314653,0,0,141,17.625
1764842837.5355208,0,0,1472,184.000
1764842837.5394793,0,0,2003,250.375
1764842837.543569,0,0,1122,140.250
1764842837.5475554,0,0,240,30.000
1764842837.55155,0,0,108,13.500
1764842837.5555692,0,0,1736,217.000
1764842837.5595417,0,0,2432,304.000
1764842837.5636296,0,0,1414,176.750
1764842837.56757,0,0,314,39.250
1764842837.5715513,0,0,24,3.000
1764842837.5755453,0,0,1494,186.750
1764842837.5795364,0,0,2218,277.250
1764842837.583536,0,0,1293,161.625
1764842837.587537,0,0,247,30.875
1764842837.5915346,0,0,-31,-3.875
1764842837.5956023,0,0,1565,195.625
1764842837.5995626,0,0,2462,307.750
1764842837.6035476,0,0,1490,186.250
1764842837.6075494,0,0,309,38.625
1764842837.6115494,0,0,-50,-6.250
1764842837.6155465,0,0,1554,194.250
1764842837.619539,0,0,2479,309.875
1764842837.6235318,0,0,1486,185.750
1764842837.6275482,0,0,259,32.375
1764842837.6316278,0,0,-148,-18.500
1764842837.6355872,0,0,1047,130.875
1764842837.6395504,0,0,1716,214.500
1764842837.6436746,0,0,8,1.000
1764842837.6476414,0,0,-209,-26.125
1764842837.6516278,0,0,1257,157.125
1764842837.6556199,0,0,2191,273.875
1764842837.6596208,0,0,1303,162.875
1764842837.66362,0,0,132,16.500
1764842837.6676693,0,0,-257,-32.125
1764842837.671616,0,0,1387,173.375
1764842837.675605,0,0,2587,323.375
1764842837.6796272,0,0,1633,204.125
1764842837.6836193,0,0,253,31.625
1764842837.6876206,0,0,-300,-37.500
1764842837.6916058,0,0,1039,129.875
1764842837.6956027,0,0,2029,253.625
1764842837.69963,0,0,1197,149.625
1764842837.7036235,0,0,30,3.750
1764842837.7076263,0,0,-376,-47.000
1764842837.7116263,0,0,1134,141.750
1764842837.7156775,0,0,2398,299.750
1764842837.7196321,0,0,1530,191.250
1764842837.7236063,0,0,166,20.750
1764842837.727625,0,0,-389,-48.625
1764842837.7316196,0,0,1236,154.500
1764842837.7356236,0,0,2734,341.750
1764842837.739615,0,0,1819,227.375
1764842837.743697,0,0,265,33.125
1764842837.7475822,0,0,-453,-56.625
1764842837.7515771,0,0,282,35.250
1764842837.7555773,0,0,895,111.875
1764842837.759582,0,0,332,41.500
1764842837.7635777,0,0,-427,-53.375
1764842837.7675855,0,0,-550,-68.750
1764842837.7715762,0,0,1479,184.875
1764842837.7755897,0,0,3472,434.000
1764842837.7796311,0,0,2467,308.375
1764842837.7835884,0,0,519,64.875
1764842837.7875805,0,0,-496,-62.000
1764842837.7915602,0,0,1245,155.625
1764842837.795605,0,0,3592,449.000
1764842837.7995784,0,0,2735,341.875
1764842837.8035603,0,0,674,84.250
1764842837.8075798,0,0,-506,-63.250
1764842837.8115797,0,0,545,68.125
1764842837.8156314,0,0,2146,268.250
1764842837.8195753,0,0,1519,189.875
1764842837.8235617,0,0,81,10.125
1764842837.82758,0,0,-634,-79.250
1764842837.8316402,0,0,484,60.500
1764842837.8355873,0,0,2037,254.625
1764842837.839573,0,0,1421,177.625
1764842837.84362,0,0,9,1.125
1764842837.847603,0,0,-681,-85.125
1764842837.851576,0,0,979,122.375
1764842837.8555746,0,0,4558,569.750
1764842837.8595784,0,0,4146,518.250
1764842837.863587,0,0,1461,182.625
1764842837.8675778,0,0,-338,-42.250
1764842837.871563,0,0,-296,-37.000
1764842837.8756514,0,0,1328,166.000
1764842837.8795912,0,0,1245,155.625
1764842837.8835752,0,0,-9,-1.125
1764842837.8875804,0,0,-645,-80.625
1764842837.891577,0,0,-1662,-207.750
1764842837.8955765,0,0,-1211,-151.375
1764842837.8995686,0,0,-2093,-261.625
1764842837.9035573,0,0,-1986,-248.250
1764842837.90757,0,0,-913,-114.125
1764842837.911561,0,0,604,75.500
1764842837.9155653,0,0,2890,361.250
1764842837.9196327,0,0,2592,324.000
1764842837.9235878,0,0,727,90.875
1764842837.9275818,0,0,-374,-46.750
1764842837.931563,0,0,204,25.500
1764842837.935626,0,0,2908,363.500
1764842837.9395833,0,0,2984,373.000
1764842837.9436224,0,0,1055,131.875
1764842837.9475822,0,0,-275,-34.375
1764842837.951577,0,0,73,9.125
1764842837.955575,0,0,2609,326.125
1764842837.959579,0,0,2746,343.250
1764842837.963572,0,0,931,116.375
1764842837.9675746,0,0,-351,-43.875
1764842837.9715614,0,0,-667,-83.375
1764842837.9756145,0,0,-435,-54.375
1764842837.9798367,0,0,-504,-63.000
1764842837.9837952,0,1,-895,-111.875
1764842837.987603,0,0,-856,-107.000
1764842837.9915764,0,0,404,50.500
1764842837.995632,0,0,2968,371.000
1764842837.999593,0,0,2674,334.250
1764842838.0035837,0,0,734,91.750
1764842838.0075839,0,0,-566,-70.750
1764842838.0115716,0,0,15,1.875
1764842838.01563,0,0,2416,302.000
1764842838.01959,0,0,2306,288.250
1764842838.0235753,0,0,588,73.500
1764842838.0275805,0,0,-599,-74.875
1764842838.0371146,0,0,1945,243.125
1764842838.0395832,0,0,1827,228.375
1764842838.0436041,0,0,303,37.875
1764842838.0475688,0,0,-702,-87.750
1764842838.051557,0,0,-301,-37.625
1764842838.055569,0,0,1466,183.250
1764842838.0595677,0,0,1374,171.750
1764842838.0635598,0,0,54,6.750
1764842838.06758,0,0,-780,-97.500
1764842838.0715742,0,0,-299,-37.375
1764842838.0756361,0,0,1647,205.875
1764842838.0795789,0,0,1606,200.750
1764842838.0835626,0,0,186,23.250
1764842838.087569,0,0,-766,-95.750
1764842838.091607,0,0,-292,-36.500
1764842838.0955675,0,0,2366,295.750
1764842838.0995593,0,0,2595,324.375
1764842838.1035583,0,0,819,102.375
1764842838.1075668,0,0,-588,-73.500
1764842838.1115596,0,0,-306,-38.250
1764842838.1155994,0,0,2472,309.000
1764842838.1195793,0,0,2758,344.750
1764842838.1235638,0,0,908,113.500
1764842838.1275764,0,0,-599,-74.875
1764842838.1315749,0,0,-432,-54.000
1764842838.135631,0,0,2393,299.125
1764842838.13958,0,0,2794,349.250
1764842838.1435575,0,1,958,119.750
1764842838.1475797,0,0,-604,-75.500
1764842838.1515746,0,0,-548,-68.500
1764842838.1555722,0,0,2110,263.750
1764842838.1595647,0,0,2542,317.750
1764842838.1635566,1,1,814,101.750
1764842838.1675746,0,0,-674,-84.250
1764842838.1715746,0,0,-569,-71.125
1764842838.1755712,0,0,2669,333.625
1764842838.1796277,0,0,3378,422.250
1764842838.1835988,1,1,1369,171.125
1764842838.1875803,0,0,-518,-64.750
1764842838.1915586,0,0,-817,-102.125
1764842838.195554,0,0,1061,132.625
1764842838.1995745,0,0,1306,163.250
1764842838.203621,0,0,18,2.250
1764842838.2075984,0,0,-995,-124.375
1764842838.2115633,0,0,-914,-114.250
1764842838.2155557,0,0,1104,138.000
1764842838.2195742,0,0,1544,193.000
1764842838.2236023,0,0,242,30.250
1764842838.2275991,0,0,-899,-112.375
1764842838.2315617,0,0,-696,-87.000
1764842838.2356324,0,0,3167,395.875
1764842838.2395816,0,0,4457,557.125
1764842838.2435577,1,0,2196,274.500
1764842838.2476103,0,0,-254,-31.750
1764842838.2515702,0,0,-832,-104.000
1764842838.2556288,0,0,3363,420.375
1764842838.2595832,0,0,5107,638.375
1764842838.2635548,1,0,2727,340.875
1764842838.2675683,0,0,-965,-120.625
1764842838.27157,0,0,2999,374.875
1764842838.2756147,0,0,4843,605.375
1764842838.2795808,0,0,2604,325.500
1764842838.2835584,0,0,-141,-17.625
1764842838.287565,0,0,-1044,-130.500
1764842838.2915516,0,0,3336,417.000
1764842838.2955995,0,0,5578,697.250
1764842838.2995677,0,0,3162,395.250
1764842838.303557,0,0,22,2.750
1764842838.3075714,0,0,-1237,-154.625
1764842838.311571,0,0,2679,334.875
1764842838.3155785,0,0,4876,609.500
1764842838.3195672,0,0,2712,339.000
1764842838.3236196,0,0,-181,-22.625
1764842838.3275878,0,0,-1266,-158.250
1764842838.331553,0,0,3904,488.000
1764842838.3355536,0,0,7091,886.375
1764842838.3395774,0,0,4618,577.250
1764842838.343572,1,1,681,85.125
1764842838.347606,0,0,-1314,-164.250
1764842838.3515744,0,0,3429,428.625
1764842838.3556316,0,0,6827,853.375
1764842838.3595798,0,0,4470,558.750
1764842838.3635566,0,0,557,69.625
1764842838.3675733,0,0,-1514,-189.250
1764842838.3715694,0,0,2267,283.375
1764842838.3755682,0,0,5308,663.500
1764842838.379561,0,0,3272,409.000
1764842838.3835552,0,0,-51,-6.375
1764842838.3875744,0,0,-1687,-210.875
1764842838.39157,0,0,2521,315.125
1764842838.3957744,0,0,5967,745.875
1764842838.3995957,0,0,3809,476.125
1764842838.4035604,0,0,130,16.250
1764842838.4075723,0,0,-1809,-226.125
1764842838.411575,0,0,2519,314.875
1764842838.4155703,0,0,6503,812.875
1764842838.4195626,0,0,4566,570.750
1764842838.4236255,0,0,595,74.375
1764842838.4275854,0,0,-1745,-218.125
1764842838.4315567,0,0,2186,273.250
1764842838.4356434,0,0,6121,765.125
1764842838.4395816,0,0,4161,520.125
1764842838.4436135,0,0,284,35.500
1764842838.4476388,0,0,-1922,-240.250
1764842838.4515607,0,0,2046,255.750
1764842838.4555807,0,0,6201,775.125
1764842838.4595728,0,0,4392,549.000
1764842838.4635682,1,1,424,53.000
1764842838.4675734,0,0,-1970,-246.250
1764842838.4716334,0,0,193,24.125
1764842838.475599,0,0,3063,382.875
1764842838.4795666,0,0,1864,233.000
1764842838.4835513,0,0,-750,-93.750
1764842838.4875715,0,0,-2109,-263.625
1764842838.491571,0,0,1286,160.750
1764842838.4956293,0,0,5373,671.625
1764842838.4995773,0,0,3774,471.750
1764842838.5035589,0,0,78,9.750
1764842838.50757,0,0,-2074,-259.250
1764842838.5115705,0,0,818,102.250
1764842838.5155723,0,0,4739,592.375
1764842838.519562,0,0,3329,416.125
1764842838.5235503,0,0,-124,-15.500
1764842838.527642,0,0,-2126,-265.750
1764842838.531565,0,0,-70,-8.750
1764842838.5355558,0,0,3129,391.125
1764842838.5395586,0,0,2080,260.000
1764842838.5437632,0,0,-665,-83.125
1764842838.5476243,0,0,-2176,-272.000
1764842838.5515587,0,0,629,78.625
1764842838.555552,0,0,4778,597.250
1764842838.5595737,0,0,3510,438.750
1764842838.5635712,0,0,-16,-2.000
1764842838.567568,0,0,-2125,-265.625
1764842838.5715597,0,0,379,47.375
1764842838.5756357,0,0,4901,612.625
1764842838.5795777,0,0,3845,480.625
1764842838.5835552,0,0,209,26.125
1764842838.5875726,0,0,-2088,-261.000
1764842838.5915682,0,0,-228,-28.500
1764842838.5955675,0,0,3381,422.625
1764842838.5995622,0,0,2475,309.375
1764842838.6035514,0,0,-481,-60.125
1764842838.607635,0,0,-2192,-274.000
1764842838.6115656,0,0,-478,-59.750
1764842838.6155493,0,0,3137,392.125
1764842838.6195738,0,0,2414,301.750
1764842838.6235714,0,0,-444,-55.500
1764842838.627567,0,0,-2168,-271.000
1764842838.631549,0,0,-947,-118.375
1764842838.6356406,0,0,2049,256.125
1764842838.639577,0,0,1512,189.000
1764842838.6436057,0,0,-851,-106.375
1764842838.647639,0,0,-2205,-275.625
1764842838.6515586,0,0,643,80.375
1764842838.6555789,0,0,6066,758.250
1764842838.659564,0,0,6257,782.125
1764842838.6636565,0,0,2476,309.500
1764842838.6675894,0,0,-1124,-140.500
1764842838.6715705,0,0,-1383,-172.875
1764842838.6755645,0,0,581,72.625
1764842838.679569,0,0,199,24.875
1764842838.6835704,0,0,-1501,-187.625
1764842838.6875727,0,0,-2292,-286.500
1764842838.6915514,0,0,-1611,-201.375
1764842838.6955473,0,0,-2,-0.250
1764842838.6995752,0,0,-375,-46.875
1764842838.703615,1,1,-1757,-219.625
1764842838.707583,0,0,-2298,-287.250
1764842838.711551,0,0,-1781,-222.625
1764842838.7155483,0,0,-136,-17.000
1764842838.7195697,0,0,-262,-32.750
1764842838.7236168,1,1,-1567,-195.875
1764842838.727587,0,0,-2217,-277.125
1764842838.7315545,0,0,-1847,-230.875
1764842838.7355509,0,0,-714,-89.250
1764842838.7395682,0,0,-902,-112.750
1764842838.743614,0,0,-1869,-233.625
1764842838.7475755,0,0,-2222,-277.750
1764842838.7515907,0,0,-1540,-192.500
1764842838.7555506,0,0,467,58.375
1764842838.7595696,0,0,410,51.250
1764842838.7635622,1,1,-1108,-138.500
1764842838.7675958,0,0,-2053,-256.625
1764842838.7715945,0,0,-1630,-203.750
1764842838.7755713,0,0,307,38.375
1764842838.7795572,0,0,347,43.375
1764842838.7835467,0,0,-1079,-134.875
1764842838.7875516,0,0,-2005,-250.625
1764842838.7915843,0,0,-1564,-195.500
1764842838.7955728,0,0,637,79.625
1764842838.7995565,0,0,795,99.375
1764842838.8035479,0,0,-767,-95.875
1764842838.8075662,0,0,-1893,-236.625
1764842838.8115644,0,0,-1350,-168.750
1764842838.8155658,0,0,1547,193.375
1764842838.8195593,0,0,1809,226.125
1764842838.8235493,1,1,-166,-20.750
1764842838.827563,0,0,-1742,-217.750
1764842838.8315606,0,0,-1701,-212.625
1764842838.8356621,0,0,11,1.375
1764842838.8396144,0,0,151,18.875
1764842838.8435614,1,0,-1093,-136.625
1764842838.8475704,0,0,-1940,-242.500
1764842838.8516061,0,0,-1702,-212.750
1764842838.8555794,0,0,-59,-7.375
1764842838.8596144,0,0,162,20.250
1764842838.8635736,0,0,-1015,-126.875
1764842838.8675666,0,0,-1865,-233.125
1764842838.8715615,0,0,-1811,-226.375
1764842838.8755612,0,0,-997,-124.625
1764842838.879568,0,0,-948,-118.500
1764842838.8835645,0,1,-1987,-248.375
1764842838.8875692,0,0,-2036,-254.500
1764842838.8915467,0,0,-942,-117.750
1764842838.8956153,0,0,-878,-109.750
1764842838.8995714,0,0,-1998,-249.750
1764842838.9035485,0,0,-1963,-245.375
1764842838.907563,0,0,-1542,-192.750
1764842838.9115856,0,0,-1534,-191.750
1764842838.9156144,0,0,-989,-123.625
1764842838.919578,0,0,-2287,-285.875
1764842838.9235642,1,1,-1764,-220.500
1764842838.9275672,0,0,-1018,-127.250
1764842838.931548,0,0,-1350,-168.750
1764842838.935615,0,0,-1848,-231.000
1764842838.9395592,0,0,-1930,-241.250
1764842838.9435499,1,1,-1565,-195.625
1764842838.9475703,0,0,-850,-106.250
1764842838.9516017,0,0,705,88.125
1764842838.9556208,0,0,1018,127.250
1764842838.9595716,0,0,-17,-2.125
1764842838.9635463,1,1,-873,-109.125
1764842838.9675665,0,0,-1275,-159.375
1764842838.971568,0,0,-1277,-159.625
1764842838.975564,0,0,-919,-114.875
1764842838.979831,0,0,-2214,-276.750
1764842838.9838266,1,1,-1484,-185.500
1764842838.9876246,0,0,-510,-63.750
1764842838.9915688,0,0,-804,-100.500
1764842838.9955635,0,0,-1466,-183.250
1764842838.9995675,0,0,-1608,-201.000
1764842839.0035665,1,1,-1217,-152.125
1764842839.0075674,0,0,-606,-75.750
1764842839.0115626,0,0,-1105,-138.125
1764842839.0155885,0,0,-1821,-227.625
1764842839.019599,0,0,-1796,-224.500
1764842839.023549,1,1,-1240,-155.000
1764842839.027562,0,0,-525,-65.625
1764842839.0315664,0,0,-1406,-175.750
1764842839.040961,0,0,-2120,-265.000
1764842839.04363,1,1,-1342,-167.750
1764842839.0475924,0,0,-186,-23.250
1764842839.051569,0,0,2287,285.875
1764842839.0555797,0,0,3106,388.250
1764842839.05957,0,0,1659,207.375
1764842839.0635595,1,1,111,13.875
1764842839.067567,0,0,-244,-30.500
1764842839.0715592,0,0,1430,178.750
1764842839.0755615,0,0,2064,258.000
1764842839.0795581,0,0,989,123.625
1764842839.0835636,1,1,-142,-17.750
1764842839.0876079,0,0,-213,-26.625
1764842839.0915692,0,0,2273,284.125
1764842839.0955617,0,0,3350,418.750
1764842839.0995667,0,0,1881,235.125
1764842839.1036232,1,1,150,18.750
1764842839.107573,0,0,-393,-49.125
1764842839.1115453,0,0,1302,162.750
1764842839.115545,0,0,2153,269.125
1764842839.1195674,0,0,1090,136.250
1764842839.1236382,1,1,-170,-21.250
1764842839.127577,0,0,-703,-87.875
1764842839.131547,0,0,-1310,-163.750
1764842839.1355433,0,0,-771,-96.375
1764842839.1395657,0,0,-1674,-209.250
1764842839.1435628,1,1,-1446,-180.750
1764842839.1475596,0,0,166,20.750
1764842839.1515422,0,0,2554,319.250
1764842839.155753,0,0,3463,432.875
1764842839.1595707,0,0,2117,264.625
1764842839.1635482,1,1,532,66.500
1764842839.167564,0,0,63,7.875
1764842839.171563,0,0,2156,269.500
1764842839.1756809,0,0,3474,434.250
1764842839.179575,0,0,2303,287.875
1764842839.1835475,1,1,645,80.625
1764842839.1875563,0,0,5,0.625
1764842839.1916273,0,0,1697,212.125
1764842839.1955857,0,0,2850,356.250
1764842839.1995554,0,0,1852,231.500
1764842839.2035415,1,1,417,52.125
1764842839.207558,0,0,-207,-25.875
1764842839.2115617,0,0,-1319,-164.875
1764842839.2155578,0,0,-808,-101.000
1764842839.2195466,0,0,-1726,-215.750
1764842839.2237563,1,1,-1439,-179.875
1764842839.227567,0,0,179,22.375
1764842839.2315464,0,0,2754,344.250
1764842839.2355456,0,0,4094,511.750
1764842839.2396343,0,0,2799,349.875
1764842839.2435646,1,1,976,122.000
1764842839.2475593,0,0,205,25.625
1764842839.2515447,0,0,1467,183.375
1764842839.2556615,0,0,2540,317.500
1764842839.2595696,0,0,1810,226.250
1764842839.2635434,1,1,607,75.875
1764842839.2675526,0,0,169,21.125
1764842839.271559,0,0,1789,223.625
1764842839.2756093,0,0,3129,391.125
1764842839.2795641,0,0,2241,280.125
1764842839.2835443,1,1,735,91.875
1764842839.2875454,0,0,86,10.750
1764842839.291542,0,0,1708,213.500
1764842839.2955425,0,0,3251,406.375
1764842839.2995484,0,0,2386,298.250
1764842839.3035405,1,1,774,96.750
1764842839.307544,0,0,18,2.250
1764842839.3115413,0,0,1937,242.125
1764842839.3155448,0,0,4260,532.500
1764842839.319572,0,0,3367,420.875
1764842839.3235629,1,1,1233,154.125
1764842839.3278475,0,0,17,2.125
1764842839.3315692,0,0,220,27.500
1764842839.3355596,0,0,307,38.375
1764842839.3395529,0,0,-66,-8.250
1764842839.3435423,1,1,-444,-55.500
1764842839.347553,0,0,-318,-39.750
1764842839.3515556,0,0,-1251,-156.375
1764842839.3555582,0,0,-820,-102.500
1764842839.359553,0,0,-1365,-170.625
1764842839.3636322,1,1,-1756,-219.500
1764842839.3675747,0,0,-89,-11.125
1764842839.3715427,0,0,2661,332.625
1764842839.3755405,0,0,5051,631.375
1764842839.3795557,0,0,4005,500.625
1764842839.383556,1,1,1658,207.250
1764842839.3875554,0,0,330,41.250
1764842839.3915405,0,0,1660,207.500
1764842839.3955402,0,0,3994,499.250
1764842839.3995464,0,0,3423,427.875
1764842839.4035444,1,1,1469,183.625
1764842839.4076111,0,0,292,36.500
1764842839.411556,0,0,1487,185.875
1764842839.415598,0,0,3597,449.625
1764842839.4195583,0,0,3037,379.625
1764842839.4235446,1,1,1210,151.250
1764842839.4275577,0,0,140,17.500
1764842839.431559,0,0,1246,155.750
1764842839.435567,0,0,3441,430.125
1764842839.4396176,0,0,3001,375.125
1764842839.4435503,1,1,1193,149.125
1764842839.4476001,0,0,75,9.375
1764842839.4515543,0,0,1144,143.000
1764842839.4555817,0,0,3356,419.500
1764842839.4595568,0,0,2937,367.125
1764842839.4636176,1,1,1122,140.250
1764842839.467565,0,0,-18,-2.250
1764842839.4715443,0,0,-483,-60.375
1764842839.4755423,0,0,-1783,-222.875
1764842839.4795392,0,0,-2051,-256.375
1764842839.4836318,1,1,-1545,-193.125
1764842839.4875846,0,0,-620,-77.500
1764842839.4915442,0,0,-168,-21.000
1764842839.4955432,0,0,-900,-112.500
1764842839.4995522,0,0,-1051,-131.375
1764842839.5036542,1,1,-469,-58.625
1764842839.507582,0,0,2,0.250
1764842839.5115442,0,0,49,6.125
1764842839.5155401,0,0,-134,-16.750
1764842839.5195553,0,0,-406,-50.750
1764842839.52355,1,1,-274,-34.250
1764842839.527553,0,0,666,83.250
1764842839.5315404,0,0,2868,358.500
1764842839.5356038,0,0,2901,362.625
1764842839.5395503,0,0,1313,164.125
1764842839.543539,1,1,149,18.625
1764842839.5475411,0,0,745,93.125
1764842839.5515602,0,0,3153,394.125
1764842839.5556295,0,0,3081,385.125
1764842839.5595605,0,0,1322,165.250
1764842839.56354,1,1,43,5.375
1764842839.5675542,0,0,542,67.750
1764842839.5716035,0,0,2852,356.500
1764842839.575567,0,0,2828,353.500
1764842839.5795534,0,0,1162,145.250
1764842839.5835369,1,1,-53,-6.625
1764842839.5875528,0,0,345,43.125
1764842839.5915542,0,0,2704,338.000
1764842839.5955517,0,0,2808,351.000
1764842839.599548,0,0,1172,146.500
1764842839.60354,1,1,-79,-9.875
1764842839.6075459,0,0,189,23.625
1764842839.6115513,0,0,2362,295.250
1764842839.6156132,0,0,2511,313.875
1764842839.6195548,0,0,1007,125.875
1764842839.6235406,1,1,-165,-20.625
1764842839.6275523,0,0,201,25.125
1764842839.631567,0,0,2812,351.500
1764842839.6356,0,0,3079,384.875
1764842839.6396263,0,0,1327,165.875
1764842839.6435597,1,1,-130,-16.250
1764842839.6475573,0,0,-116,-14.500
1764842839.6515396,0,0,1943,242.875
1764842839.6555336,0,0,2260,282.500
1764842839.6595492,0,0,883,110.375
1764842839.6635954,1,1,-270,-33.750
1764842839.667559,0,0,2,0.250
1764842839.6715372,0,0,2788,348.500
1764842839.6755369,0,0,3283,410.375
1764842839.6795485,0,0,1486,185.750
1764842839.6835718,1,1,-135,-16.875
1764842839.6875594,0,0,-440,-55.000
1764842839.6915383,0,0,1114,139.250
1764842839.695536,0,0,1525,190.625
1764842839.6995351,0,0,485,60.625
1764842839.7035394,1,1,-431,-53.875
1764842839.7075384,0,0,-426,-53.250
1764842839.711538,0,0,1078,134.750
1764842839.7155328,0,0,1471,183.875
1764842839.7195392,0,0,447,55.875
1764842839.7235508,1,1,-464,-58.000
1764842839.727592,0,0,-484,-60.500
1764842839.7315505,0,0,1376,172.000
1764842839.7355368,0,0,2117,264.625
1764842839.7395499,0,0,957,119.625
1764842839.7435489,1,1,-262,-32.750
1764842839.7475505,0,0,-689,-86.125
1764842839.7515368,0,0,-296,-37.000
1764842839.7555375,0,0,-42,-5.250
1764842839.7595773,0,0,-425,-53.125
1764842839.763537,1,1,-728,-91.000
1764842839.7675476,0,0,-608,-76.000
1764842839.7715502,0,0,-120,-15.000
1764842839.77555,0,0,-9,-1.125
1764842839.7795527,0,0,-464,-58.000
1764842839.7835453,1,1,-777,-97.125
1764842839.7875435,0,0,-761,-95.125
1764842839.7915378,0,0,-1624,-203.000
1764842839.7955384,0,0,-983,-122.875
1764842839.7995505,0,0,-2257,-282.125
1764842839.8035579,1,1,-1405,-175.625
1764842839.8075638,0,0,-415,-51.875
1764842839.8115485,0,0,-1574,-196.750
1764842839.8155506,0,0,-2350,-293.750
1764842839.8195498,0,0,-2159,-269.875
1764842839.8235447,1,1,-1260,-157.500
1764842839.8275423,0,0,-436,-54.500
1764842839.8315375,0,0,-1552,-194.000
1764842839.8355367,0,0,-943,-117.875
1764842839.8396223,0,0,-2216,-277.000
1764842839.8435628,1,1,-1140,-142.500
1764842839.8475516,0,0,138,17.250
1764842839.8515377,0,0,-151,-18.875
1764842839.8555372,0,0,-1168,-146.000
1764842839.859588,0,0,-1300,-162.500
1764842839.8635478,1,1,-774,-96.750
1764842839.867549,0,0,-90,-11.250
1764842839.8715348,0,0,-1561,-195.125
1764842839.875537,0,0,-959,-119.875
1764842839.8795516,0,0,-2211,-276.375
1764842839.8835468,1,1,-1069,-133.625
1764842839.8875482,0,0,329,41.125
1764842839.8915458,0,0,675,84.375
1764842839.8955455,0,0,55,6.875
1764842839.8995533,0,0,-329,-41.125
1764842839.9035451,1,1,-236,-29.500
1764842839.9075475,0,0,237,29.625
1764842839.9115455,0,0,-402,-50.250
1764842839.915552,0,0,-1371,-171.375
1764842839.9195473,0,0,-1259,-157.375
1764842839.9235356,1,1,-553,-69.125
1764842839.927552,0,0,276,34.500
1764842839.9315464,0,0,178,22.250
1764842839.9355443,0,0,-332,-41.500
1764842839.9395437,0,0,-439,-54.875
1764842839.9435375,1,1,-197,-24.625
1764842839.9475384,0,0,282,35.250
1764842839.9515328,0,0,-880,-110.000
1764842839.9555316,0,0,-2172,-271.500
1764842839.9595628,0,0,-1861,-232.625
1764842839.9635458,1,1,-798,-99.750
1764842839.967548,0,0,317,39.625
1764842839.9715512,0,0,-97,-12.125
1764842839.9755466,0,0,-1145,-143.125
1764842839.9798124,0,0,-1130,-141.250
1764842839.9837723,1,0,-493,-61.625
1764842839.9875767,0,0,318,39.750
1764842839.9915483,0,0,122,15.250
1764842839.9955435,0,0,-500,-62.500
1764842839.9995384,0,0,-537,-67.125
1764842840.0035434,1,1,-200,-25.000
1764842840.0075452,0,0,446,55.750
1764842840.0115454,0,0,2335,291.875
1764842840.0155447,0,0,3617,452.125
1764842840.0195475,0,0,2677,334.625
1764842840.0235443,1,1,1159,144.875
1764842840.0275497,0,0,446,55.750
1764842840.0315473,0,0,636,79.500
1764842840.0355494,0,0,810,101.250
1764842840.0448332,0,0,370,46.250
1764842840.047576,0,0,370,46.250
1764842840.0515566,0,0,805,100.625
1764842840.0555513,0,0,908,113.500
1764842840.0595434,0,0,595,74.375
1764842840.0635347,0,0,254,31.750
1764842840.0675366,0,0,329,41.125
1764842840.0715358,0,0,785,98.125
1764842840.0755317,0,0,900,112.500
1764842840.079534,0,0,577,72.125
1764842840.0835316,0,0,208,26.000
1764842840.0875506,0,0,291,36.375
1764842840.0915484,0,0,726,90.750
1764842840.095547,0,0,807,100.875
1764842840.0995464,0,0,459,57.375
1764842840.1035397,0,0,75,9.375
1764842840.1075451,0,0,236,29.500
1764842840.1115463,0,0,822,102.750
1764842840.1155436,0,0,571,71.375
1764842840.1195478,0,0,89,11.125
1764842840.123536,0,0,192,24.000
1764842840.1275432,0,0,757,94.625
1764842840.1315322,0,0,931,116.375
1764842840.1355307,0,0,548,68.500
1764842840.1395423,0,0,66,8.250
1764842840.143543,0,0,157,19.625
1764842840.147543,0,0,725,90.625
1764842840.151544,0,0,927,115.875
1764842840.1555424,0,0,547,68.375
1764842840.1595485,0,0,26,3.250
1764842840.163579,0,0,121,15.125
1764842840.167546,0,0,793,99.125
1764842840.171541,0,0,1074,134.250
1764842840.1755438,0,0,663,82.875
1764842840.1795483,0,0,69,8.625
1764842840.1835415,0,0,85,10.625
1764842840.1875403,0,0,657,82.125
1764842840.1915298,0,0,924,115.500
1764842840.1955304,0,0,572,71.500
1764842840.1995459,0,0,33,4.125
1764842840.2035418,0,0,62,7.750
1764842840.2075474,0,0,594,74.250
1764842840.2115438,0,0,851,106.375
1764842840.215541,0,0,521,65.125
1764842840.2195423,0,0,4,0.500
1764842840.2235394,0,0,33,4.125
1764842840.2275546,0,0,571,71.375
1764842840.2315457,0,0,856,107.000
1764842840.2355423,0,0,536,67.000
1764842840.239535,0,0,7,0.875
1764842840.2436113,0,0,12,1.500
1764842840.2475615,0,0,587,73.375
1764842840.2515316,0,0,943,117.875
1764842840.2555299,0,0,617,77.125
1764842840.259541,0,0,37,4.625
1764842840.263576,0,0,-8,-1.000
1764842840.2675414,0,0,543,67.875
1764842840.2715313,0,0,919,114.875
1764842840.27553,0,0,609,76.125
1764842840.2795446,0,0,29,3.625
1764842840.2835395,0,0,-35,-4.375
1764842840.2875457,0,0,494,61.750
1764842840.2915335,0,0,887,110.875
1764842840.2955313,0,0,601,75.125
1764842840.2995422,0,0,29,3.625
1764842840.303538,0,0,-55,-6.875
1764842840.3075428,0,0,451,56.375
1764842840.3115444,0,0,853,106.625
1764842840.315544,0,0,586,73.250
1764842840.3195426,0,0,26,3.250
1764842840.3235464,0,0,-71,-8.875
1764842840.3275535,0,0,418,52.250
1764842840.3315349,0,0,847,105.875
1764842840.33553,0,0,600,75.000
1764842840.3395383,0,0,37,4.625
1764842840.3435366,0,0,-83,-10.375
1764842840.3475385,0,0,322,40.250
1764842840.3515308,0,0,686,85.750
1764842840.35553,0,0,475,59.375
1764842840.3595402,0,0,-22,-2.750
1764842840.3635502,0,0,-108,-13.500
1764842840.3675442,0,0,330,41.250
1764842840.371545,0,0,744,93.000
1764842840.3755434,0,0,533,66.625
1764842840.379542,0,0,8,1.000
1764842840.3835359,0,0,-115,-14.375
1764842840.3875396,0,0,310,38.750
1764842840.3915386,0,0,756,94.500
1764842840.3955438,0,0,554,69.250
1764842840.3995423,0,0,24,3.000
1764842840.4035327,0,0,-127,-15.875
1764842840.4075415,0,0,311,38.875
1764842840.41154,0,0,825,103.125
1764842840.4155378,0,0,632,79.000
1764842840.4195414,0,0,70,8.750
1764842840.4235384,0,0,-124,-15.500
1764842840.4275417,0,0,252,31.500
1764842840.431538,0,0,736,92.000
1764842840.4355392,0,0,570,71.250
1764842840.4395423,0,0,47,5.875
1764842840.443609,0,0,-138,-17.250
1764842840.447558,0,0,171,21.375
1764842840.4515262,0,0,573,71.625
1764842840.4555278,0,0,440,55.000
1764842840.4595408,0,0,-8,-1.000
1764842840.4635718,0,0,-159,-19.875
1764842840.4675376,0,0,70,8.750
1764842840.4715266,0,0,307,38.375
1764842840.4755251,0,0,199,24.875
1764842840.479544,0,0,-123,-15.375
1764842840.483541,0,0,-191,-23.875
1764842840.4875479,0,0,43,5.375
1764842840.4915402,0,0,251,31.375
1764842840.4955397,0,0,151,18.875
1764842840.4995413,0,0,-143,-17.875
1764842840.5035448,0,0,-199,-24.875
1764842840.5075464,0,0,37,4.625
1764842840.5115383,0,0,246,30.750
1764842840.5155385,0,0,156,19.500
1764842840.5195417,0,0,-130,-16.250
1764842840.5235386,0,0,-200,-25.000
1764842840.5275455,0,0,25,3.125
1764842840.531543,0,0,242,30.250
1764842840.535536,0,0,164,20.500
1764842840.539534,0,0,-121,-15.125
1764842840.5435357,0,0,-201,-25.125
1764842840.5475597,0,0,20,2.500
1764842840.5515435,0,0,234,29.250
1764842840.5555377,0,0,158,19.750
1764842840.5595367,0,0,-113,-14.125
1764842840.5635388,0,0,-196,-24.500
1764842840.5675426,0,0,15,1.875
1764842840.5715287,0,0,220,27.500
1764842840.575527,0,0,151,18.875
1764842840.5795379,0,0,-107,-13.375
1764842840.5835369,0,0,-193,-24.125
1764842840.587542,0,0,8,1.000
1764842840.5915406,0,0,213,26.625
1764842840.595538,0,0,150,18.750
1764842840.599538,0,0,-99,-12.375
1764842840.603535,0,0,-197,-24.625
1764842840.607539,0,0,1,0.125
1764842840.6115377,0,0,209,26.125
1764842840.6155396,0,0,154,19.250
1764842840.6195393,0,0,-85,-10.625
1764842840.623533,0,0,-191,-23.875
1764842840.6275365,0,0,-5,-0.625
1764842840.6315403,0,0,203,25.375
1764842840.6355362,0,0,162,20.250
1764842840.6395328,0,0,-61,-7.625
1764842840.6436043,0,0,-167,-20.875
1764842840.6475518,0,0,10,1.250
1764842840.651527,0,0,206,25.750
1764842840.655526,0,0,148,18.500
1764842840.6595411,0,0,-90,-11.250
1764842840.6635344,0,0,-221,-27.625
1764842840.6675682,0,0,-46,-5.750
1764842840.6715238,0,0,171,21.375
1764842840.6755276,0,0,148,18.500
1764842840.679542,0,0,-58,-7.250
1764842840.6835384,0,0,-184,-23.000
1764842840.6875439,0,0,-23,-2.875
1764842840.69154,0,0,174,21.750
1764842840.6955407,0,0,146,18.250
1764842840.6995428,0,0,-55,-6.875
1764842840.7035363,0,0,-186,-23.250
1764842840.707541,0,0,-30,-3.750
1764842840.7115378,0,0,177,22.125
1764842840.7155364,0,0,151,18.875
1764842840.719541,0,0,-47,-5.875
1764842840.7235355,0,0,-185,-23.125
1764842840.7275488,0,0,-34,-4.250
1764842840.731544,0,0,154,19.250
1764842840.7355392,0,0,-32,-4.000
1764842840.7395327,0,0,-176,-22.000
1764842840.7435243,0,0,-39,-4.875
1764842840.747538,0,0,149,18.625
1764842840.7515383,0,0,140,17.500
1764842840.755534,0,0,-35,-4.375
1764842840.7595317,0,0,-182,-22.750
1764842840.7635248,0,0,-45,-5.625
1764842840.7675416,0,0,148,18.500
1764842840.7715387,0,0,148,18.500
1764842840.7755358,0,0,-17,-2.125
1764842840.7795358,0,0,-173,-21.625
1764842840.7835345,0,0,-44,-5.500
1764842840.7875352,0,0,143,17.875
1764842840.7915232,0,0,142,17.750
1764842840.7955184,0,0,-18,-2.250
1764842840.799533,0,0,-170,-21.250
1764842840.803539,0,0,-48,-6.000
1764842840.8075397,0,0,150,18.750
1764842840.811535,0,0,157,19.625
1764842840.8155322,0,0,2,0.250
1764842840.8195367,0,0,-138,-17.250
1764842840.8235307,0,0,-53,-6.625
1764842840.8275366,0,0,117,14.625
1764842840.8315365,0,0,122,15.250
1764842840.8355334,0,0,-17,-2.125
1764842840.839534,0,0,-138,-17.250
1764842840.8436024,0,0,-55,-6.875
1764842840.8475575,0,0,108,13.500
1764842840.8515291,0,0,120,15.000
1764842840.8555236,0,0,-8,-1.000
1764842840.8595312,0,0,-130,-16.250
1764842840.8635306,0,0,-55,-6.875
1764842840.8675723,0,0,100,12.500
1764842840.8715234,0,0,122,15.250
1764842840.8755198,0,0,7,0.875
1764842840.8795357,0,0,-117,-14.625
1764842840.8835342,0,0,-54,-6.750
1764842840.8875403,0,0,96,12.000
1764842840.8915381,0,0,118,14.750
1764842840.895537,0,0,1,0.125
1764842840.8995397,0,0,-122,-15.250
1764842840.903531,0,0,-58,-7.250
1764842840.907538,0,0,91,11.375
1764842840.911537,0,0,115,14.375
1764842840.9155347,0,0,6,0.750
1764842840.9195397,0,0,-119,-14.875
1764842840.9235313,0,0,-62,-7.750
1764842840.9275386,0,0,91,11.375
1764842840.931535,0,0,130,16.250
1764842840.9355373,0,0,19,2.375
1764842840.9395366,0,0,-99,-12.375
1764842840.9435358,0,0,-54,-6.750
1764842840.9475396,0,0,84,10.500
1764842840.951522,0,0,121,15.125
1764842840.9555216,0,0,15,1.875
1764842840.9595342,0,0,-97,-12.125
1764842840.9635324,0,0,-55,-6.875
1764842840.9675312,0,0,77,9.625
1764842840.9715204,0,0,125,15.625
1764842840.9755216,0,0,25,3.125
1764842840.9797914,0,0,-96,-12.000
1764842840.9837542,0,0,-57,-7.125
1764842840.9875565,0,0,81,10.125
1764842840.9915223,0,0,130,16.250
1764842840.9955168,0,0,28,3.500
1764842840.999529,0,0,-91,-11.375
1764842841.0035279,0,0,-56,-7.000
1764842841.0075364,0,0,74,9.250
1764842841.0115297,0,0,119,14.875
1764842841.0155313,0,0,18,2.250
1764842841.0195377,0,0,-97,-12.125
1764842841.0235329,0,0,-58,-7.250
1764842841.0275352,0,0,75,9.375
1764842841.0315335,0,0,132,16.500
1764842841.0355346,0,0,39,4.875
1764842841.0395298,0,0,-88,-11.000
1764842841.0487525,0,0,71,8.875
1764842841.0515726,0,0,138,17.250
1764842841.0555325,0,0,43,5.375
1764842841.0595293,0,0,-86,-10.750
1764842841.0635304,0,0,-62,-7.750
1764842841.067582,0,0,64,8.000
1764842841.0715406,0,0,139,17.375
1764842841.0755348,0,0,50,6.250
1764842841.0795343,0,0,-82,-10.250
1764842841.083535,0,0,-66,-8.250
1764842841.0875332,0,0,60,7.500
1764842841.0915236,0,0,142,17.750
1764842841.095518,0,0,58,7.250
1764842841.0995405,0,0,-75,-9.375
1764842841.1035373,0,0,-70,-8.750
1764842841.107545,0,0,129,16.125
1764842841.1115375,0,0,565,70.625
1764842841.1155374,0,0,543,67.875
1764842841.1195388,0,0,212,26.500
1764842841.1235347,0,0,11,1.375
1764842841.1275456,0,0,584,73.000
1764842841.1315374,0,0,3995,499.375
1764842841.1355383,0,0,4897,612.125
1764842841.1395402,0,0,2959,369.875
1764842841.1435387,0,0,851,106.375
1764842841.1475477,0,0,301,37.625
1764842841.1515238,0,0,3066,383.250
1764842841.15552,0,0,3947,493.375
1764842841.1595392,0,0,2383,297.875
1764842841.1635346,0,0,620,77.500
1764842841.1675303,0,0,40,5.000
1764842841.1715562,0,0,1805,225.625
1764842841.1755214,0,0,2410,301.250
1764842841.1795392,0,0,1378,172.250
1764842841.183535,0,0,246,30.750
1764842841.18754,0,0,-145,-18.125
1764842841.1915364,0,0,671,83.875
1764842841.1955335,0,0,922,115.250
1764842841.1995394,0,0,393,49.125
1764842841.2035356,0,0,-119,-14.875
1764842841.2075396,0,0,-174,-21.750
1764842841.2115328,0,0,834,104.250
1764842841.2155354,0,0,1194,149.250
1764842841.2195399,0,0,582,72.750
1764842841.2235334,0,0,-54,-6.750
1764842841.2275288,0,0,-203,-25.375
1764842841.231518,0,0,725,90.625
1764842841.2355185,0,0,1084,135.500
1764842841.2395418,0,0,518,64.750
1764842841.2435331,0,0,-93,-11.625
1764842841.2476149,0,0,-246,-30.750
1764842841.251551,0,0,618,77.250
1764842841.2555363,0,0,989,123.625
1764842841.259528,0,0,467,58.375
1764842841.2635188,0,0,-116,-14.500
1764842841.2675354,0,0,-253,-31.625
1764842841.2715685,0,0,852,106.500
1764842841.2755306,0,0,1376,172.000
1764842841.2795293,0,0,749,93.625
1764842841.2835188,0,0,-14,-1.750
1764842841.2875326,0,0,-276,-34.500
1764842841.2915184,0,0,850,106.250
1764842841.2955172,0,0,1455,181.875
1764842841.2995384,0,0,821,102.625
1764842841.3035374,0,0,8,1.000
1764842841.3075411,0,0,-343,-42.875
1764842841.3115332,0,0,216,27.000
1764842841.315534,0,0,504,63.000
1764842841.319537,0,0,143,17.875
1764842841.323535,0,0,-267,-33.375
1764842841.3275414,0,0,-371,-46.375
1764842841.3315327,0,0,247,30.875
1764842841.335531,0,0,545,68.125
1764842841.339535,0,0,172,21.500
1764842841.3435493,0,0,-257,-32.125
1764842841.3475568,0,0,272,34.000
1764842841.351539,0,0,619,77.375
1764842841.3555331,0,0,239,29.875
1764842841.359525,0,0,-228,-28.500
1764842841.3635185,0,0,-391,-48.875
1764842841.367535,0,0,143,17.875
1764842841.3715677,0,0,445,55.625
1764842841.3755364,0,0,121,15.125
1764842841.3795252,0,0,-275,-34.375
1764842841.3835144,0,0,-400,-50.000
1764842841.3875191,0,0,149,18.625
1764842841.3915155,0,0,513,64.125
1764842841.3955166,0,0,199,24.875
1764842841.399534,0,0,-232,-29.000
1764842841.4035323,0,0,-393,-49.125
1764842841.4075403,0,0,207,25.875
1764842841.411532,0,0,634,79.250
1764842841.4155328,0,0,296,37.000
1764842841.4195364,0,0,-190,-23.750
1764842841.42353,0,0,-391,-48.875
1764842841.427535,0,0,182,22.750
1764842841.4315317,0,0,660,82.500
1764842841.4355319,0,0,346,43.250
1764842841.4395332,0,0,-154,-19.250
1764842841.443526,0,0,-379,-47.375
1764842841.4476056,0,0,208,26.000
1764842841.45155,0,0,719,89.875
1764842841.455534,0,0,359,44.875
1764842841.4595258,0,0,-202,-25.250
1764842841.463514,0,0,-406,-50.750
1764842841.467534,0,0,604,75.500
1764842841.4715323,0,0,1752,219.000
1764842841.4755678,0,0,1282,160.250
1764842841.4795256,0,0,250,31.250
1764842841.483515,0,0,-337,-42.125
1764842841.487536,0,0,479,59.875
1764842841.4915316,0,0,1637,204.625
1764842841.495533,0,0,1230,153.750
1764842841.4995372,0,0,228,28.500
1764842841.5035398,0,0,-357,-44.625
1764842841.507538,0,0,428,53.500
1764842841.5115335,0,0,1649,206.125
1764842841.515534,0,0,1274,159.250
1764842841.519537,0,0,247,30.875
1764842841.5235307,0,0,-377,-47.125
1764842841.527534,0,0,294,36.750
1764842841.5315309,0,0,1456,182.000
1764842841.5355291,0,0,1132,141.500
1764842841.539525,0,0,175,21.875
1764842841.543515,0,0,-410,-51.250
1764842841.5475304,0,0,231,28.875
1764842841.5515313,0,0,1410,176.250
1764842841.5555334,0,0,1119,139.875
1764842841.559564,0,0,172,21.500
1764842841.5635374,0,0,-426,-53.250
1764842841.567532,0,0,225,28.125
1764842841.5715144,0,0,1504,188.000
1764842841.5755475,0,0,1225,153.125
1764842841.5795362,0,0,212,26.500
1764842841.583534,0,0,-444,-55.500
1764842841.5875301,0,0,65,8.125
1764842841.5915139,0,0,1200,150.000
1764842841.595513,0,0,982,122.750
1764842841.5995314,0,0,97,12.125
1764842841.6035287,0,0,-476,-59.500
1764842841.6075392,0,0,-10,-1.250
1764842841.6115334,0,0,1124,140.500
1764842841.6155274,0,0,944,118.000
1764842841.6195304,0,0,83,10.375
1764842841.62353,0,0,-489,-61.125
1764842841.6275291,0,0,-63,-7.875
1764842841.6315143,0,0,1087,135.875
1764842841.635509,0,0,946,118.250
1764842841.639532,0,0,93,11.625
1764842841.6435294,0,0,-494,-61.750
1764842841.6476176,0,0,-121,-15.125
1764842841.6515543,0,0,1003,125.375
1764842841.6555312,0,0,890,111.250
1764842841.6595187,0,0,66,8.250
1764842841.6635134,0,0,-505,-63.125
1764842841.6675327,0,0,-118,-14.750
1764842841.6715312,0,0,1086,135.750
1764842841.6755664,0,0,992,124.000
1764842841.679524,0,0,120,15.000
1764842841.6835115,0,0,-506,-63.250
1764842841.6875331,0,0,-202,-25.250
1764842841.6915276,0,0,944,118.000
1764842841.6955285,0,0,886,110.750
1764842841.6995313,0,0,67,8.375
1764842841.7035263,0,0,-525,-65.625
1764842841.7075293,0,0,-218,-27.250
1764842841.7115293,0,0,1096,137.000
1764842841.715529,0,0,1105,138.125
1764842841.7195315,0,0,213,26.625
1764842841.723537,0,0,-479,-59.875
1764842841.7275302,0,0,-299,-37.375
1764842841.7315094,0,0,867,108.375
1764842841.7355106,0,0,893,111.625
1764842841.7395341,0,0,95,11.875
1764842841.7435272,0,0,-516,-64.500
1764842841.7475207,0,0,-351,-43.875
1764842841.7515118,0,0,752,94.000
1764842841.7555113,0,0,806,100.750
1764842841.7595317,0,0,56,7.000
1764842841.763527,0,0,-527,-65.875
1764842841.7675328,0,0,-339,-42.375
1764842841.771527,0,0,955,119.375
1764842841.7755303,0,0,1071,133.875
1764842841.7795687,0,0,223,27.875
1764842841.7835288,0,0,-479,-59.875
1764842841.7875237,0,0,-384,-48.000
1764842841.7915099,0,0,869,108.625
1764842841.79551,0,0,1017,127.125
1764842841.799531,0,0,201,25.125
1764842841.8035305,0,0,-488,-61.000
1764842841.807531,0,0,-469,-58.625
1764842841.811526,0,0,607,75.875
1764842841.8155236,0,0,767,95.875
1764842841.8195314,0,0,64,8.000
1764842841.8235288,0,0,-526,-65.750
1764842841.8275356,0,0,-441,-55.125
1764842841.8315265,0,0,789,98.625
1764842841.835525,0,0,995,124.375
1764842841.8395307,0,0,210,26.250
1764842841.8435252,0,0,-488,-61.000
1764842841.8476133,0,0,-507,-63.375
1764842841.8515408,0,0,624,78.000
1764842841.8555284,0,0,861,107.625
1764842841.8595223,0,0,146,18.250
1764842841.8635118,0,0,-502,-62.750
1764842841.867529,0,0,-541,-67.625
1764842841.8715246,0,0,500,62.500
1764842841.8755238,0,0,741,92.625
1764842841.8795183,0,0,81,10.125
1764842841.8835108,0,0,-523,-65.375
1764842841.8875375,0,0,-524,-65.500
1764842841.8915308,0,0,683,85.375
1764842841.8955228,0,0,995,124.375
1764842841.899527,0,0,250,31.250
1764842841.9035237,0,0,-468,-58.500
1764842841.9075344,0,0,-571,-71.375
1764842841.911523,0,0,521,65.125
1764842841.9155257,0,0,846,105.750
1764842841.9195278,0,0,174,21.750
1764842841.9235187,0,0,-486,-60.750
1764842841.927534,0,0,-604,-75.500
1764842841.9315276,0,0,368,46.000
1764842841.9355276,0,0,689,86.125
1764842841.9395254,0,0,91,11.375
1764842841.9435213,0,0,-507,-63.375
1764842841.9475331,0,0,-625,-78.125
1764842841.951524,0,0,92,11.500
1764842841.9555223,0,0,279,34.875
1764842841.9595258,0,0,-193,-24.125
1764842841.9635239,0,0,-597,-74.625
1764842841.96754,0,0,524,65.500
1764842841.9715362,0,0,945,118.125
1764842841.975526,0,0,281,35.125
1764842841.979754,0,0,-434,-54.250
1764842841.9837406,0,0,-614,-76.750
1764842841.987557,0,0,387,48.375
1764842841.9915283,0,0,805,100.625
1764842841.9955213,0,0,203,25.375
1764842841.9995294,0,0,-453,-56.625
1764842842.0035267,0,0,-639,-79.875
1764842842.0075333,0,0,324,40.500
1764842842.011526,0,0,810,101.250
1764842842.015524,0,0,246,30.750
1764842842.019528,0,0,-424,-53.000
1764842842.0235214,0,0,-642,-80.250
1764842842.02752,0,0,285,35.625
1764842842.0315087,0,0,790,98.750
1764842842.0355108,0,0,248,31.000
1764842842.0395136,0,0,-422,-52.750
1764842842.0435426,0,0,-643,-80.375
1764842842.0532925,0,0,1052,131.500
1764842842.0556848,0,0,457,57.125
1764842842.0595512,0,0,-332,-41.500
1764842842.0635529,0,0,-653,-81.625
1764842842.067551,0,0,279,34.875
1764842842.0715282,0,0,895,111.875
1764842842.0755231,0,0,360,45.000
1764842842.0795524,0,0,-372,-46.500
1764842842.083511,0,0,-677,-84.625
1764842842.0875342,0,0,4,0.500
1764842842.0915236,0,0,471,58.875
1764842842.0955205,0,0,60,7.500
1764842842.0995307,0,0,-489,-61.125
1764842842.1035256,0,0,-677,-84.625
1764842842.107527,0,0,265,33.125
1764842842.1115057,0,0,967,120.875
1764842842.1155055,0,0,454,56.750
1764842842.1195273,0,0,-316,-39.500
1764842842.1235232,0,0,-673,-84.125
1764842842.127532,0,0,73,9.125
1764842842.131523,0,0,699,87.375
1764842842.1355221,0,0,272,34.000
1764842842.139525,0,0,-390,-48.750
1764842842.1435213,0,0,-678,-84.750
1764842842.14753,0,0,201,25.125
1764842842.1515243,0,0,990,123.750
1764842842.1555207,0,0,519,64.875
1764842842.159526,0,0,-276,-34.500
1764842842.1635275,0,0,-674,-84.250
1764842842.167538,0,0,92,11.500
1764842842.1715136,0,0,893,111.625
1764842842.1755047,0,0,484,60.500
1764842842.1795301,0,0,-276,-34.500
1764842842.1835577,0,0,-673,-84.125
1764842842.1875193,0,0,78,9.750
1764842842.1915073,0,0,928,116.000
1764842842.195504,0,0,534,66.750
1764842842.199527,0,0,-253,-31.625
1764842842.2035224,0,0,-678,-84.750
1764842842.207531,0,0,-35,-4.375
1764842842.2115214,0,0,749,93.625
1764842842.2155206,0,0,409,51.125
1764842842.2195249,0,0,-292,-36.500
1764842842.2235198,0,0,-662,-82.750
1764842842.2275233,0,0,25,3.125
1764842842.2315197,0,0,875,109.375
1764842842.2355242,0,0,519,64.875
1764842842.2395246,0,0,-259,-32.375
1764842842.2435157,0,0,-706,-88.250
1764842842.247528,0,0,-251,-31.375
1764842842.2516053,0,0,420,52.500
1764842842.2555356,0,0,174,21.750
1764842842.259517,0,0,-398,-49.750
1764842842.2635028,0,0,-697,-87.125
1764842842.2675073,0,0,-72,-9.000
1764842842.271505,0,0,817,102.125
1764842842.2755039,0,0,525,65.625
1764842842.279513,0,0,-227,-28.375
1764842842.2835405,0,0,-671,-83.875
1764842842.2875152,0,0,-174,-21.750
1764842842.2915072,0,0,668,83.500
1764842842.295504,0,0,429,53.625
1764842842.2995253,1,0,-258,-32.250
1764842842.3035226,0,0,-668,-83.500
1764842842.3075237,0,0,-210,-26.250
1764842842.3115175,0,0,619,77.375
1764842842.3155208,0,0,404,50.500
1764842842.3195276,0,0,-268,-33.500
1764842842.3235192,0,0,-675,-84.375
1764842842.3275251,0,0,-255,-31.875
1764842842.3315182,0,0,560,70.000
1764842842.3355207,0,0,376,47.000
1764842842.3395262,0,0,-271,-33.875
1764842842.3435218,0,0,-665,-83.125
1764842842.3475263,0,0,-292,-36.500
1764842842.3515198,0,0,517,64.625
1764842842.3555162,0,0,360,45.000
1764842842.359525,0,0,-268,-33.500
1764842842.3635201,0,0,-660,-82.500
1764842842.3675275,0,0,-244,-30.500
1764842842.3715174,0,0,733,91.625
1764842842.3755336,0,0,599,74.875
1764842842.3795204,0,0,-132,-16.500
1764842842.3835356,0,0,-623,-77.875
1764842842.3875248,0,0,-357,-44.625
1764842842.3915193,0,0,448,56.000
1764842842.3955166,0,0,348,43.500
1764842842.3995125,1,1,-251,-31.375
1764842842.403504,0,0,-642,-80.250
1764842842.407524,0,0,-341,-42.625
1764842842.4115222,0,0,523,65.375
1764842842.4155164,0,0,438,54.750
1764842842.4195187,0,0,-198,-24.750
1764842842.4235182,0,0,-628,-78.500
1764842842.4275196,0,0,-381,-47.625
1764842842.4315176,0,0,446,55.750
1764842842.4355152,0,0,381,47.625
1764842842.4395163,1,0,-219,-27.375
1764842842.443516,0,0,-626,-78.250
1764842842.4475267,0,0,-373,-46.625
1764842842.4515996,0,0,600,75.000
1764842842.4555306,0,0,595,74.375
1764842842.4595106,0,0,-78,-9.750
1764842842.4635003,0,0,-578,-72.250
1764842842.467521,0,0,-342,-42.750
1764842842.4715188,0,0,782,97.750
1764842842.4755142,0,0,810,101.250
1764842842.4795098,1,1,53,6.625
1764842842.4834993,0,0,-542,-67.750
1764842842.4875274,0,0,-467,-58.375
1764842842.4915218,0,0,343,42.875
1764842842.4955194,0,0,364,45.500
1764842842.4995222,0,0,-197,-24.625
1764842842.5035164,0,0,-609,-76.125
1764842842.5075214,0,0,-453,-56.625
1764842842.5115023,0,0,435,54.375
1764842842.515501,0,0,482,60.250
1764842842.5195212,1,1,-123,-15.375
1764842842.523524,0,0,-585,-73.125
1764842842.5275261,0,0,-452,-56.500
1764842842.5315042,0,0,575,71.875
1764842842.5355024,0,0,693,86.625
1764842842.5395045,1,1,23,2.875
1764842842.5435007,0,0,-533,-66.625
1764842842.5475028,0,0,-521,-65.125
1764842842.5515008,0,0,270,33.750
1764842842.5555012,0,0,369,46.125
1764842842.5595224,1,1,-160,-20.000
1764842842.5635185,0,0,-580,-72.500
1764842842.5675218,0,0,-491,-61.375
1764842842.5715144,0,0,473,59.125
1764842842.5755162,0,0,631,78.875
1764842842.5795226,0,0,-523,-65.375
1764842842.583515,0,0,-498,-62.250
1764842842.5875216,0,0,501,62.625
1764842842.591514,0,0,701,87.625
1764842842.5955184,0,0,67,8.375
1764842842.5995214,1,1,-497,-62.125
1764842842.603516,0,0,-527,-65.875
1764842842.6075213,0,0,399,49.875
1764842842.6115148,0,0,613,76.625
1764842842.6155155,0,0,29,3.625
1764842842.6195192,1,0,-505,-63.125
1764842842.6235156,0,0,-571,-71.375
1764842842.6275198,0,0,130,16.250
1764842842.6315129,0,0,279,34.875
1764842842.6355119,0,0,-181,-22.625
1764842842.6395187,1,0,-572,-71.500
1764842842.643517,0,0,-577,-72.125
1764842842.647523,0,0,135,16.875
1764842842.651591,0,0,316,39.500
1764842842.655529,0,0,-140,-17.500
1764842842.6595168,1,0,-546,-68.250
1764842842.6635013,0,0,-533,-66.625
1764842842.6675165,0,0,506,63.250
1764842842.671514,0,0,848,106.000
1764842842.6755154,0,0,226,28.250
1764842842.679506,1,0,-415,-51.875
1764842842.6835017,0,0,-567,-70.875
1764842842.687563,0,0,354,44.250
1764842842.6915157,0,0,715,89.375
1764842842.695514,0,0,162,20.250
1764842842.6995182,1,1,-431,-53.875
1764842842.7035153,0,0,-609,-76.125
1764842842.7075224,0,0,-34,-4.250
1764842842.7115152,0,0,187,23.375
1764842842.7155137,0,0,-188,-23.500
1764842842.7195165,1,1,-551,-68.875
1764842842.7235165,0,0,-575,-71.875
1764842842.7275243,0,0,352,44.000
1764842842.7315183,0,0,755,94.375
1764842842.7355144,0,0,214,26.750
1764842842.739517,1,1,-396,-49.500
1764842842.7435136,0,0,-583,-72.875
1764842842.7475228,0,0,276,34.500
1764842842.751516,0,0,710,88.750
1764842842.7555141,0,0,208,26.000
1764842842.7595162,1,1,-388,-48.500
1764842842.7635155,0,0,-602,-75.250
1764842842.7675228,0,0,54,6.750
1764842842.7715175,0,0,408,51.000
1764842842.775515,0,0,9,1.125
1764842842.7795186,1,1,-465,-58.125
1764842842.78352,0,0,-605,-75.625
1764842842.787532,0,0,222,27.750
1764842842.7915013,0,0,730,91.250
1764842842.795498,0,0,267,33.375
1764842842.7995157,1,1,-348,-43.500
1764842842.8035164,0,0,-581,-72.625
1764842842.807515,0,0,510,63.750
1764842842.811499,0,0,1287,160.875
1764842842.815497,0,0,705,88.125
1764842842.8195193,1,1,-165,-20.625
1764842842.8235118,0,0,-601,-75.125
1764842842.8275158,0,0,-13,-1.625
1764842842.8315153,0,0,460,57.500
1764842842.8355136,0,0,102,12.750
1764842842.839518,1,1,-412,-51.500
1764842842.843512,0,0,-625,-78.125
1764842842.8475168,0,0,-113,-14.125
1764842842.85159,0,0,257,32.125
1764842842.8555295,0,0,-54,-6.750
1764842842.8595111,1,1,-476,-59.500
1764842842.8634968,0,0,-622,-77.750
1764842842.8675108,0,0,114,14.250
1764842842.8715122,0,0,699,87.375
1764842842.875511,0,0,298,37.250
1764842842.8795054,1,1,-320,-40.000
1764842842.8834946,0,0,-609,-76.125
1764842842.8875544,0,0,-50,-6.250
1764842842.8915155,0,0,438,54.750
1764842842.895516,0,0,115,14.375
1764842842.8995187,1,1,-392,-49.000
1764842842.9035132,0,0,-619,-77.375
1764842842.907518,0,0,31,3.875
1764842842.9115102,0,0,676,84.500
1764842842.915512,0,0,338,42.250
1764842842.9195197,1,1,-279,-34.875
1764842842.9235144,0,0,-598,-74.750
1764842842.9275293,0,0,-80,-10.000
1764842842.9315226,0,0,486,60.750
1764842842.9355123,0,0,196,24.500
1764842842.9395056,1,1,-341,-42.625
1764842842.9434981,0,0,-602,-75.250
1764842842.9475133,0,0,-60,-7.500
1764842842.9515119,0,0,546,68.250
1764842842.9555109,0,0,254,31.750
1764842842.959504,1,1,-310,-38.750
1764842842.9634984,0,0,-601,-75.125
1764842842.9675205,0,0,-32,-4.000
1764842842.9715126,0,0,669,83.625
1764842842.9755113,0,0,380,47.500
1764842842.979753,1,1,-242,-30.250
1764842842.9837437,0,0,-587,-73.375
1764842842.9875906,0,0,-120,-15.000
1764842842.9915168,0,0,567,70.875
1764842842.9955099,0,0,339,42.375
1764842842.9995155,1,1,-237,-29.625
1764842843.0035105,0,0,-565,-70.625
1764842843.0075226,0,0,-143,-17.875
1764842843.011514,0,0,477,59.625
1764842843.0155072,0,0,234,29.250
1764842843.0195131,1,1,-318,-39.750
1764842843.023513,0,0,-619,-77.375
1764842843.0275166,0,0,-257,-32.125
1764842843.0315108,0,0,331,41.375
1764842843.0355108,0,0,154,19.250
1764842843.0395038,1,1,-327,-40.875
1764842843.0435164,0,0,-591,-73.875
1764842843.047516,0,0,-174,-21.750
1764842843.0566993,0,0,-224,-28.000
1764842843.0595555,1,1,-224,-28.000
1764842843.063511,0,0,-570,-71.250
1764842843.067505,0,0,-102,-12.750
1764842843.0714972,0,0,926,115.750
1764842843.0754974,0,0,777,97.125
1764842843.079521,1,1,26,3.250
1764842843.0835063,0,0,-501,-62.625
1764842843.0875106,0,0,-227,-28.375
1764842843.091534,0,0,578,72.250
1764842843.0954962,0,0,459,57.375
1764842843.0995164,1,1,-145,-18.125
1764842843.10351,0,0,-547,-68.375
1764842843.1075149,0,0,-275,-34.375
1764842843.1115134,0,0,431,53.875
1764842843.1155088,0,0,315,39.375
1764842843.119516,1,1,-220,-27.500
1764842843.1235137,0,0,-567,-70.875
1764842843.1275146,0,0,-413,-51.625
1764842843.1314914,0,0,-15,-1.875
1764842843.1354928,0,0,-118,-14.750
1764842843.1395133,1,1,-449,-56.125
1764842843.1435106,0,0,-615,-76.875
1764842843.1475139,0,0,-326,-40.750
1764842843.151507,0,0,337,42.125
1764842843.1555104,0,0,257,32.125
1764842843.1595147,1,1,-230,-28.750
1764842843.163509,0,0,-546,-68.250
1764842843.167514,0,0,-387,-48.375
1764842843.1715093,0,0,134,16.750
1764842843.1755085,0,0,67,8.375
1764842843.1795137,1,1,-324,-40.500
1764842843.1835084,0,0,-560,-70.000
1764842843.1875055,0,0,-329,-41.125
1764842843.191523,0,0,336,42.000
1764842843.1955075,0,0,-164,-20.500
1764842843.1995203,1,1,-510,-63.750
1764842843.2035124,0,0,-439,-54.875
1764842843.2075143,0,0,-72,-9.000
1764842843.2115064,0,0,-136,-17.000
1764842843.2155046,0,0,-430,-53.750
1764842843.2195108,1,1,-574,-71.750
1764842843.2235096,0,0,-328,-41.000
1764842843.2275062,0,0,399,49.875
1764842843.231491,0,0,388,48.500
1764842843.2354891,0,0,-120,-15.000
1764842843.2395105,1,1,-480,-60.000
1764842843.2435112,0,0,-394,-49.250
1764842843.247518,0,0,208,26.000
1764842843.2515097,0,0,221,27.625
1764842843.2555792,0,0,-196,-24.500
1764842843.2595203,1,1,-490,-61.250
1764842843.2634943,0,0,-395,-49.375
1764842843.2675066,0,0,169,21.125
1764842843.2715104,0,0,173,21.625
1764842843.2755089,0,0,-223,-27.875
1764842843.2794983,1,1,-495,-61.875
1764842843.2834878,0,0,-418,-52.250
1764842843.2875009,0,0,-3,-0.375
1764842843.2915318,0,0,-44,-5.500
1764842843.295493,0,0,-357,-44.625
1764842843.2995112,1,1,-535,-66.875
1764842843.303508,0,0,-379,-47.375
1764842843.307509,0,0,343,42.875
1764842843.3114936,0,0,428,53.500
1764842843.3154926,0,0,-43,-5.375
1764842843.3195157,1,1,-421,-52.625
1764842843.3235066,0,0,-429,-53.625
1764842843.3275182,0,0,-28,-3.500
1764842843.3315094,0,0,-30,-3.750
1764842843.3355162,0,0,-328,-41.000
1764842843.339516,1,1,-512,-64.000
1764842843.3435075,0,0,-389,-48.625
1764842843.3475053,0,0,333,41.625
1764842843.351493,0,0,455,56.875
1764842843.3554916,0,0,-5,-0.625
1764842843.3595092,1,1,-392,-49.000
1764842843.3635056,0,0,-385,-48.125
1764842843.3675075,0,0,407,50.875
1764842843.3714924,0,0,602,75.250
1764842843.3754923,0,0,112,14.000
1764842843.3795097,1,1,-344,-43.000
1764842843.383508,0,0,-437,-54.625
1764842843.387512,0,0,46,5.750
1764842843.3915043,0,0,157,19.625
1764842843.395541,0,0,-167,-20.875
1764842843.3995116,1,1,-434,-54.250
1764842843.4035065,0,0,-411,-51.375
1764842843.4075098,0,0,240,30.000
1764842843.4115024,0,0,413,51.625
1764842843.4155056,0,0,5,0.625
1764842843.4195118,1,1,-367,-45.875
1764842843.4235053,0,0,-443,-55.375
1764842843.427507,0,0,11,1.375
1764842843.4315035,0,0,140,17.500
1764842843.435508,0,0,-162,-20.250
1764842843.4395118,1,1,-424,-53.000
1764842843.4435046,0,0,-463,-57.875
1764842843.4475052,0,0,-286,-35.750
1764842843.4514997,0,0,-322,-40.250
1764842843.4555736,0,0,-489,-61.125
1764842843.4595208,1,1,-544,-68.000
1764842843.4634926,0,0,-439,-54.875
1764842843.4675052,0,0,100,12.500
1764842843.4715028,0,0,293,36.625
1764842843.4755042,0,0,-37,-4.625
1764842843.4795,1,1,-356,-44.500
1764842843.4834886,0,0,-458,-57.250
1764842843.487516,0,0,-524,-65.500
1764842843.4915087,0,0,-694,-86.750
1764842843.4955416,0,0,-747,-93.375
1764842843.4995093,1,1,-632,-79.000
1764842843.5035071,0,0,-465,-58.125
1764842843.50752,0,0,-587,-73.375
1764842843.5115054,0,0,-875,-109.375
1764842843.5155036,0,0,-894,-111.750
1764842843.519508,1,1,-681,-85.125
1764842843.5235074,0,0,-443,-55.375
1764842843.5275168,0,0,-454,-56.750
1764842843.5315056,0,0,-634,-79.250
1764842843.5355036,0,0,-691,-86.375
1764842843.5394967,1,1,-577,-72.125
1764842843.5434897,0,0,-404,-50.500
1764842843.5475085,0,0,-277,-34.625
1764842843.5515063,0,0,-314,-39.250
1764842843.5555038,0,0,-431,-53.875
1764842843.5595067,1,1,-454,-56.750
1764842843.5635023,0,0,-370,-46.250
1764842843.5675132,0,0,-225,-28.125
1764842843.571507,0,0,-196,-24.500
1764842843.5755053,0,0,-319,-39.875
1764842843.5795066,1,1,-388,-48.500
1764842843.5835028,0,0,-346,-43.250
1764842843.5875115,0,0,-346,-43.250
1764842843.5915062,0,0,-465,-58.125
1764842843.5955396,0,0,-535,-66.875
1764842843.5995097,1,1,-477,-59.625
1764842843.603509,0,0,-340,-42.500
1764842843.6075237,0,0,-245,-30.625
1764842843.6115127,0,0,-299,-37.375
1764842843.6155057,0,0,-404,-50.500
1764842843.619496,1,1,-415,-51.875
1764842843.6234865,0,0,-316,-39.500
1764842843.6275058,0,0,-292,-36.500
1764842843.6315062,0,0,-428,-53.500
1764842843.6355035,0,0,-512,-64.000
1764842843.6394951,1,1,-462,-57.750
1764842843.6434865,0,0,-307,-38.375
1764842843.6475074,0,0,-98,-12.250
1764842843.6515071,0,0,-13,-1.625
1764842843.6555784,0,0,-153,-19.125
1764842843.659505,1,1,-280,-35.000
1764842843.6634889,0,0,-273,-34.125
1764842843.667504,0,0,-172,-21.500
1764842843.6715019,0,0,-143,-17.875
1764842843.6755018,0,0,-246,-30.750
1764842843.6794977,1,1,-315,-39.375
1764842843.6834886,0,0,-269,-33.625
1764842843.687508,0,0,-638,-79.750
1764842843.6915042,0,0,-1333,-166.625
1764842843.6955035,0,0,-1297,-162.125
1764842843.6995354,1,1,-818,-102.250
1764842843.7034876,0,0,-330,-41.250
1764842843.7074947,0,0,-72,-9.000
1764842843.7114842,0,0,-73,-9.125
1764842843.7154877,0,0,-210,-26.250
1764842843.7195077,1,1,-288,-36.000
1764842843.7235096,0,0,-231,-28.875
1764842843.727514,0,0,-25,-3.125
1764842843.7315083,0,0,202,25.250
1764842843.7355008,0,0,93,11.625
1764842843.7394943,1,1,-111,-13.875
1764842843.7434864,0,0,-176,-22.000
1764842843.7475066,0,0,162,20.250
1764842843.7515006,0,0,772,96.500
1764842843.7554967,0,0,642,80.250
1764842843.7594936,1,1,174,21.750
1764842843.7634866,0,0,-118,-14.750
1764842843.7675083,0,0,17,2.125
1764842843.7715032,0,0,442,55.250
1764842843.7755008,0,0,358,44.750
1764842843.7795033,1,1,30,3.750
1764842843.7835028,0,0,-155,-19.375
1764842843.787502,0,0,136,17.000
1764842843.7914867,0,0,846,105.750
1764842843.7954848,0,0,755,94.375
1764842843.7995071,1,1,237,29.625
1764842843.8035018,0,0,-113,-14.125
1764842843.8075118,0,0,584,73.000
1764842843.8115044,0,0,528,66.000
1764842843.8155,0,0,119,14.875
1764842843.819505,1,1,-144,-18.000
1764842843.8235025,0,0,67,8.375
1764842843.8275096,0,0,815,101.875
1764842843.8315024,0,0,789,98.625
1764842843.835499,0,0,275,34.375
1764842843.8395014,1,1,-101,-12.625
1764842843.8435004,0,0,-13,-1.625
1764842843.847508,0,0,604,75.500
1764842843.851501,0,0,576,72.000
1764842843.8555732,0,0,133,16.625
1764842843.8595123,1,1,-172,-21.500
1764842843.8634853,0,0,-59,-7.375
1764842843.8674998,0,0,575,71.875
1764842843.8715024,0,0,582,72.750
1764842843.8755014,0,0,153,19.125
1764842843.8794901,1,1,-157,-19.625
1764842843.883483,0,0,-53,-6.625
1764842843.8875058,0,0,662,82.750
1764842843.8915014,0,0,699,87.375
1764842843.8954995,0,0,224,28.000
1764842843.8995426,1,1,-139,-17.375
1764842843.9034998,0,0,-62,-7.750
1764842843.9075027,0,0,725,90.625
1764842843.9114974,0,0,805,100.625
1764842843.9154992,0,0,293,36.625
1764842843.9195046,1,1,-128,-16.000
1764842843.923495,0,0,-122,-15.250
1764842843.927502,0,0,566,70.750
1764842843.9315012,0,0,655,81.875
1764842843.9354987,0,0,209,26.125
1764842843.9395018,1,1,-153,-19.125
1764842843.9434988,0,0,-179,-22.375
1764842843.9475029,0,0,324,40.500
1764842843.9514952,0,0,388,48.500
1764842843.9554956,0,0,47,5.875
1764842843.9595013,1,1,-207,-25.875
1764842843.963495,0,0,-174,-21.750
1764842843.9675047,0,0,389,48.625
1764842843.9714978,0,0,472,59.000
1764842843.9754982,0,0,97,12.125
1764842843.9797354,1,1,-201,-25.125
1764842843.9837208,0,0,-202,-25.250
1764842843.9875343,0,0,345,43.125
1764842843.9914994,0,0,451,56.375
1764842843.9954937,0,0,94,11.750
1764842843.9995446,1,1,-196,-24.500
1764842844.003501,0,0,-192,-24.000
1764842844.007507,0,0,436,54.500
1764842844.0115,0,0,582,72.750
1764842844.015503,0,0,181,22.625
1764842844.0194993,1,1,-168,-21.000
1764842844.0234842,0,0,-192,-24.000
1764842844.0275033,0,0,553,69.125
1764842844.031496,0,0,773,96.625
1764842844.035496,0,0,312,39.000
1764842844.0394895,1,1,-123,-15.375
1764842844.0434835,0,0,-256,-32.000
1764842844.047504,0,0,155,19.375
1764842844.0515003,0,0,278,34.750
1764842844.0607345,0,0,-237,-29.625
1764842844.0635397,0,0,-228,-28.500
1764842844.0675113,0,0,453,56.625
1764842844.0714858,0,0,680,85.000
1764842844.0754814,0,0,263,32.875
1764842844.0795023,1,1,-146,-18.250
1764842844.0835004,0,0,-256,-32.000
1764842844.0875015,0,0,366,45.750
1764842844.0914848,0,0,623,77.875
1764842844.0954807,0,0,239,29.875
1764842844.0995026,1,1,-154,-19.250
1764842844.1035392,0,0,-320,-40.000
1764842844.107494,0,0,-288,-36.000
1764842844.1114826,0,0,-308,-38.500
1764842844.1154797,0,0,-396,-49.500
1764842844.1195006,1,1,-390,-48.750
1764842844.1234937,0,0,-252,-31.500
1764842844.1275065,0,0,572,71.500
1764842844.1315062,0,0,936,117.000
1764842844.1354985,0,0,466,58.250
1764842844.13949,1,1,-65,-8.125
1764842844.143479,0,0,-305,-38.125
1764842844.1474912,0,0,-87,-10.875
1764842844.1514835,0,0,29,3.625
1764842844.1554823,0,0,-147,-18.375
1764842844.1594799,1,1,-291,-36.375
1764842844.1634772,0,0,-286,-35.750
1764842844.1675034,0,0,192,24.000
1764842844.171502,0,0,437,54.625
1764842844.1754978,0,0,142,17.750
1764842844.179503,1,1,-180,-22.500
1764842844.1834943,0,0,-292,-36.500
1764842844.1875033,0,0,91,11.375
1764842844.1914976,0,0,320,40.000
1764842844.1954958,0,0,73,9.125
1764842844.1995015,1,1,-201,-25.125
1764842844.2035298,0,0,-280,-35.000
1764842844.2074952,0,0,389,48.625
1764842844.2114782,0,0,852,106.500
1764842844.215481,0,0,481,60.125
1764842844.2195034,1,1,-33,-4.125
1764842844.2234967,0,0,-284,-35.500
1764842844.2274969,0,0,142,17.750
1764842844.231494,0,0,496,62.000
1764842844.2354965,0,0,230,28.750
1764842844.2394998,1,1,-135,-16.875
1764842844.2434974,0,0,-298,-37.250
1764842844.2474997,0,0,60,7.500
1764842844.251494,0,0,349,43.625
1764842844.2554953,0,0,116,14.500
1764842844.2595813,1,1,-185,-23.125
1764842844.2635117,0,0,-310,-38.750
1764842844.267496,0,0,-5,-0.625
1764842844.2714796,0,0,254,31.750
1764842844.2754786,0,0,48,6.000
1764842844.2795,1,1,-217,-27.125
1764842844.2834983,0,0,-321,-40.125
1764842844.2874985,0,0,-271,-33.875
1764842844.2914803,0,0,-264,-33.000
1764842844.295478,0,0,-359,-44.875
1764842844.2995048,1,1,-395,-49.375
1764842844.3035314,0,0,-327,-40.875
1764842844.3075008,0,0,76,9.500
1764842844.3114924,0,0,404,50.500
1764842844.315495,0,0,179,22.375
1764842844.3194969,1,1,-154,-19.250
1764842844.323491,0,0,-301,-37.625
1764842844.327504,0,0,-115,-14.375
1764842844.3314943,0,0,78,9.750
1764842844.335492,0,0,-64,-8.000
1764842844.3394954,1,1,-251,-31.375
1764842844.3434925,0,0,-303,-37.875
1764842844.3474925,0,0,142,17.750
1764842844.3514786,0,0,636,79.500
1764842844.355475,0,0,408,51.000
1764842844.359497,1,1,-28,-3.500
1764842844.3634958,0,0,-265,-33.125
1764842844.3675017,0,0,53,6.625
1764842844.3714948,0,0,536,67.000
1764842844.3754916,0,0,357,44.625
1764842844.3794963,1,1,-45,-5.625
1764842844.38349,0,0,-272,-34.000
1764842844.3874974,0,0,96,12.000
1764842844.3914938,0,0,687,85.875
1764842844.3954945,0,0,503,62.875
1764842844.3994951,1,1,25,3.125
1764842844.4034894,0,0,-264,-33.000
1764842844.4075015,0,0,-49,-6.125
1764842844.4114964,0,0,400,50.000
1764842844.415492,0,0,270,33.750
1764842844.4195046,1,1,-86,-10.750
1764842844.4234946,0,0,9,1.125
1764842844.4274888,0,0,554,69.250
1764842844.4314773,0,0,409,51.125
1764842844.435477,0,0,-20,-2.500
1764842844.439494,1,1,-276,-34.500
1764842844.4434905,0,0,64,8.000
1764842844.4474924,0,0,798,99.750
1764842844.451479,0,0,662,82.750
1764842844.4554782,0,0,113,14.125
1764842844.45958,1,1,-252,-31.500
1764842844.4635024,0,0,-144,-18.000
1764842844.467489,0,0,260,32.500
1764842844.471477,0,0,174,21.750
1764842844.4754765,0,0,-136,-17.000
1764842844.479498,1,1,-305,-38.125
1764842844.4834917,0,0,-46,-5.750
1764842844.487492,0,0,547,68.375
1764842844.4914742,0,0,449,56.125
1764842844.4954774,0,0,6,0.750
1764842844.4995,1,1,-278,-34.750
1764842844.5034962,0,0,-123,-15.375
1764842844.507504,0,0,421,52.625
1764842844.5114913,0,0,359,44.875
1764842844.5154936,0,0,-33,-4.125
1764842844.5194974,1,1,-281,-35.125
1764842844.5235004,0,0,-120,-15.000
1764842844.5274956,0,0,426,53.250
1764842844.5314777,0,0,367,45.875
1764842844.535477,0,0,-31,-3.875
1764842844.5394783,1,1,-287,-35.875
1764842844.5434766,0,0,-141,-17.625
1764842844.5474777,0,0,418,52.250
1764842844.5514739,0,0,378,47.250
1764842844.5554743,0,0,-21,-2.625
1764842844.5594966,1,1,-279,-34.875
1764842844.5634918,0,0,-201,-25.125
1764842844.5675006,0,0,217,27.125
1764842844.5714881,0,0,182,22.750
1764842844.5754929,0,0,-123,-15.375
1764842844.579499,1,1,-307,-38.375
1764842844.5834925,0,0,-82,-10.250
1764842844.587496,0,0,789,98.625
1764842844.5914876,0,0,818,102.250
1764842844.5954897,0,0,243,30.375
1764842844.5994925,1,1,-211,-26.375
1764842844.60349,0,0,-215,-26.875
1764842844.607534,0,0,349,43.625
1764842844.611492,0,0,383,47.875
1764842844.6154876,0,0,2,0.250
1764842844.6194892,1,0,-277,-34.625
1764842844.6234865,0,0,-210,-26.250
1764842844.6274981,0,0,364,45.500
1764842844.6314917,0,0,400,50.000
1764842844.6354852,0,0,14,1.750
1764842844.6394935,0,0,-272,-34.000
1764842844.6434927,0,0,-230,-28.750
1764842844.6474977,0,0,327,40.875
1764842844.6514888,0,0,377,47.125
1764842844.6554868,0,0,7,0.875
1764842844.6595666,0,0,-274,-34.250
1764842844.6635032,0,0,-319,-39.875
1764842844.6674907,0,0,-113,-14.125
1764842844.6714756,0,0,-120,-15.000
1764842844.6754766,0,0,-293,-36.625
1764842844.6794918,0,0,-361,-45.125
1764842844.6834872,0,0,-217,-27.125
1764842844.6874914,0,0,413,51.625
1764842844.6914766,0,0,497,62.125
1764842844.6954741,0,0,91,11.375
1764842844.699494,0,0,-222,-27.750
1764842844.7034874,0,0,-157,-19.625
1764842844.7075305,0,0,796,99.500
1764842844.7114942,0,0,1014,126.750
1764842844.7154913,0,0,425,53.125
1764842844.7194865,0,0,-139,-17.375
1764842844.723472,0,0,-289,-36.125
1764842844.7274914,0,0,308,38.500
1764842844.731491,0,0,470,58.750
1764842844.7354913,0,0,95,11.875
1764842844.739496,0,0,-238,-29.750
1764842844.7434886,0,0,-291,-36.375
1764842844.7474933,0,0,204,25.500
1764842844.751491,0,0,328,41.000
1764842844.75549,0,0,1,0.125
1764842844.7594929,0,0,-272,-34.000
1764842844.7634869,0,0,-310,-38.750
1764842844.7674963,0,0,116,14.500
1764842844.7714872,0,0,227,28.375
1764842844.775489,0,0,-60,-7.500
1764842844.7794952,0,0,-288,-36.000
1764842844.78349,0,0,-311,-38.875
1764842844.7874846,0,0,115,14.375
1764842844.7914722,0,0,238,29.750
1764842844.7954743,0,0,-45,-5.625
1764842844.7994926,0,0,-282,-35.250
1764842844.8034883,0,0,-304,-38.000
1764842844.8074946,0,0,198,24.750
1764842844.8114908,0,0,374,46.750
1764842844.8154862,0,0,58,7.250
1764842844.8194933,0,0,-238,-29.750
1764842844.8235095,0,0,-323,-40.375
1764842844.8275058,0,0,14,1.750
1764842844.8314912,0,0,137,17.125
1764842844.8354867,0,0,-98,-12.250
1764842844.8394818,0,0,-295,-36.875
1764842844.8434753,0,0,-296,-37.000
1764842844.847492,0,0,353,44.125
1764842844.8514874,0,0,648,81.000
1764842844.8554854,0,0,265,33.125
1764842844.8595672,0,0,-155,-19.375
1764842844.8635023,0,0,-298,-37.250
1764842844.8674908,0,0,389,48.625
1764842844.8714697,0,0,778,97.250
1764842844.875471,0,0,382,47.750
1764842844.8794906,0,0,-105,-13.125
1764842844.8834896,0,0,-321,-40.125
1764842844.8874896,0,0,89,11.125
1764842844.891475,0,0,344,43.000
1764842844.8954704,0,0,78,9.750
1764842844.899493,0,0,-224,-28.000
1764842844.9034872,0,0,-325,-40.625
1764842844.9074907,0,0,174,21.750
1764842844.9115262,0,0,480,60.000
1764842844.915485,0,0,179,22.375
1764842844.9194903,0,0,-185,-23.125
1764842844.9234827,0,0,-339,-42.375
1764842844.9274957,0,0,14,1.750
1764842844.9314926,0,0,254,31.750
1764842844.9354854,0,0,22,2.750
1764842844.9394803,0,0,-247,-30.875
1764842844.9434676,0,0,-347,-43.375
1764842844.9474833,0,0,-53,-6.625
1764842844.9514875,0,0,151,18.875
1764842844.9554875,0,0,-47,-5.875
1764842844.959477,0,0,-272,-34.000
1764842844.9634664,0,0,-341,-42.625
1764842844.967491,0,0,42,5.250
1764842844.9714901,0,0,321,40.125
1764842844.9754877,0,0,89,11.125
1764842844.9797146,0,0,-209,-26.125
1764842844.9837186,0,0,-332,-41.500
1764842844.9875207,0,0,-26,-3.250
1764842844.9914901,0,0,228,28.500
1764842844.9954846,0,0,25,3.125
1764842844.9994917,0,0,-234,-29.250
1764842845.0034816,0,0,-328,-41.000
1764842845.007496,0,0,118,14.750
1764842845.0115302,0,0,532,66.500
1764842845.015487,0,0,285,35.625
1764842845.019491,0,0,-113,-14.125
1764842845.0234847,0,0,-315,-39.375
1764842845.027492,0,0,2,0.250
1764842845.0314844,0,0,361,45.125
1764842845.035486,0,0,164,20.500
1764842845.0394807,0,0,-162,-20.250
1764842845.0434883,0,0,100,12.500
1764842845.0474913,0,0,594,74.250
1764842845.0514822,0,0,366,45.750
1764842845.0554826,0,0,-69,-8.625
1764842845.064688,0,0,-210,-26.250
1764842845.0675244,0,0,-46,-5.750
1764842845.0714893,0,0,-158,-19.750
1764842845.0754862,0,0,-310,-38.750
1764842845.0794866,0,0,-340,-42.500
1764842845.0834832,0,0,73,9.125
1764842845.0874937,0,0,584,73.000
1764842845.091484,0,0,380,47.500
1764842845.095484,0,0,-57,-7.125
1764842845.0994794,0,0,-302,-37.750
1764842845.1034708,0,0,-52,-6.500
1764842845.107487,0,0,380,47.500
1764842845.1115239,0,0,233,29.125
1764842845.1154838,0,0,-117,-14.625
1764842845.119488,0,0,-312,-39.000
1764842845.1234834,0,0,-748,-93.500
1764842845.1274912,0,0,-1443,-180.375
1764842845.1314852,0,0,-1406,-175.750
1764842845.1354809,0,0,-929,-116.125
1764842845.1394818,0,0,-441,-55.125
1764842845.143484,0,0,143,17.875
1764842845.1474833,0,0,716,89.500
1764842845.1514673,0,0,510,63.750
1764842845.1554627,0,0,28,3.500
1764842845.1594853,0,0,-254,-31.750
1764842845.1634858,0,0,-49,-6.125
1764842845.1674867,0,0,440,55.000
1764842845.1714652,0,0,334,41.750
1764842845.1754637,0,0,-34,-4.250
1764842845.1794817,0,0,-252,-31.500
1764842845.1834855,0,0,-115,-14.375
1764842845.1874878,0,0,231,28.875
1764842845.1914816,0,0,135,16.875
1764842845.1954813,0,0,-139,-17.375
1764842845.1994827,0,0,-274,-34.250
1764842845.203478,0,0,-112,-14.000
1764842845.2074902,0,0,258,32.250
1764842845.2115138,0,0,172,21.500
1764842845.2154834,0,0,-122,-15.250
1764842845.219481,0,0,-276,-34.500
1764842845.2234805,0,0,-184,-23.000
1764842845.2274816,0,0,46,5.750
1764842845.2314663,0,0,-29,-3.625
1764842845.2354636,0,0,-227,-28.375
1764842845.2394834,0,0,-295,-36.875
1764842845.2434998,0,0,-165,-20.625
1764842845.2474957,0,0,111,13.875
1764842845.2514827,0,0,45,5.625
1764842845.255482,0,0,-177,-22.125
1764842845.2594821,0,0,-272,-34.000
1764842845.2635515,0,0,-112,-14.000
1764842845.2674987,0,0,325,40.625
1764842845.271469,0,0,278,34.750
1764842845.2754657,0,0,-47,-5.875
1764842845.2794845,0,0,-240,-30.000
1764842845.2834818,0,0,-160,-20.000
1764842845.2874808,0,0,199,24.875
1764842845.2914655,0,0,170,21.250
1764842845.2954657,0,0,-101,-12.625
1764842845.2994902,0,0,-249,-31.125
1764842845.3034825,0,0,-151,-18.875
1764842845.3074865,0,0,235,29.375
1764842845.3114812,0,0,209,26.125
1764842845.3155215,0,0,-76,-9.500
1764842845.319489,0,0,-240,-30.000
1764842845.323484,0,0,-135,-16.875
1764842845.3275251,0,0,354,44.250
1764842845.3314857,0,0,361,45.125
1764842845.3354843,0,0,18,2.250
1764842845.339476,0,0,-214,-26.750
1764842845.343469,0,0,-159,-19.875
1764842845.3474815,0,0,320,40.000
1764842845.3514807,0,0,342,42.750
1764842845.3554828,0,0,10,1.250
1764842845.3594751,0,0,-213,-26.625
1764842845.3634655,0,0,-187,-23.375
1764842845.367488,0,0,163,20.375
1764842845.3714786,0,0,168,21.000
1764842845.3754787,0,0,-92,-11.500
1764842845.379488,0,0,-244,-30.500
1764842845.3834808,0,0,-200,-25.000
1764842845.3874762,0,0,131,16.375
1764842845.3914635,0,0,146,18.250
1764842845.3954637,0,0,-100,-12.500
1764842845.3994856,0,0,-243,-30.375
1764842845.403481,0,0,-189,-23.625
1764842845.407488,0,0,211,26.375
1764842845.4114811,0,0,255,31.875
1764842845.4154928,0,0,-26,-3.250
1764842845.4194825,0,0,-218,-27.250
1764842845.4234822,0,0,-278,-34.750
1764842845.4274855,0,0,-369,-46.125
1764842845.4314811,0,0,-465,-58.125
1764842845.4354742,0,0,-482,-60.250
1764842845.4394798,0,0,-364,-45.500
1764842845.4434772,0,0,-179,-22.375
1764842845.447485,0,0,230,28.750
1764842845.451478,0,0,269,33.625
1764842845.4554791,0,0,-14,-1.750
1764842845.4594831,0,0,-205,-25.625
1764842845.463553,0,0,-233,-29.125
1764842845.4674935,0,0,-136,-17.000
1764842845.4714663,0,0,-178,-22.250
1764842845.4754622,0,0,-291,-36.375
1764842845.4794838,0,0,-291,-36.375
1764842845.4834778,0,0,-205,-25.625
1764842845.4874802,0,0,-13,-1.625
1764842845.4914668,0,0,-29,-3.625
1764842845.4954636,0,0,-197,-24.625
1764842845.4994838,0,0,-256,-32.000
1764842845.5034795,0,0,-200,-25.000
1764842845.5074909,0,0,17,2.125
1764842845.511481,0,0,28,3.500
1764842845.5155175,0,0,-152,-19.000
1764842845.5194862,0,0,-237,-29.625
1764842845.5234768,0,0,-195,-24.375
1764842845.5274844,0,0,76,9.500
1764842845.5314817,0,0,129,16.125
1764842845.5354786,0,0,-73,-9.125
1764842845.5394726,0,0,-201,-25.125
1764842845.54347,0,0,-185,-23.125
1764842845.5474868,0,0,103,12.875
1764842845.5514834,0,0,175,21.875
1764842845.555482,0,0,-39,-4.875
1764842845.559473,0,0,-189,-23.625
1764842845.5634615,0,0,-175,-21.875
1764842845.5674813,0,0,232,29.000
1764842845.571483,0,0,398,49.750
1764842845.5754797,0,0,144,18.000
1764842845.5794737,0,0,-97,-12.125
1764842845.583464,0,0,-193,-24.125
1764842845.587478,0,0,-291,-36.375
1764842845.591477,0,0,-428,-53.500
1764842845.5954812,0,0,-474,-59.250
1764842845.5994828,0,0,-375,-46.875
1764842845.6034768,0,0,-227,-28.375
1764842845.6074836,0,0,1,0.125
1764842845.611478,0,0,36,4.500
1764842845.6154778,0,0,-122,-15.250
1764842845.619517,0,0,-211,-26.375
1764842845.623478,0,0,-186,-23.250
1764842845.62748,0,0,-22,-2.750
1764842845.631475,0,0,5,0.625
1764842845.6354742,0,0,-138,-17.250
1764842845.6394827,0,0,-211,-26.375
1764842845.6434782,0,0,-176,-22.000
1764842845.647485,0,0,70,8.750
1764842845.6514735,0,0,165,20.625
1764842845.6554742,0,0,-158,-19.750
1764842845.6594827,0,0,-173,-21.625
1764842845.663553,0,0,76,9.500
1764842845.6674929,0,0,213,26.625
1764842845.6714628,0,0,35,4.375
1764842845.6754608,0,0,-134,-16.750
1764842845.6794798,0,0,-168,-21.000
1764842845.683475,0,0,-44,-5.500
1764842845.6874766,0,0,-15,-1.875
1764842845.6914618,0,0,-141,-17.625
1764842845.6954577,0,0,-216,-27.000
1764842845.699481,0,0,-179,-22.375
1764842845.7034798,0,0,-44,-5.500
1764842845.7074852,0,0,-22,-2.750
1764842845.711479,0,0,-147,-18.375
1764842845.715475,0,0,-215,-26.875
1764842845.7195175,0,0,-176,-22.000
1764842845.723479,0,0,73,9.125
1764842845.7274888,0,0,229,28.625
1764842845.731485,0,0,64,8.000
1764842845.7354753,0,0,-113,-14.125
1764842845.7394688,0,0,-160,-20.000
1764842845.743459,0,0,-223,-27.875
1764842845.7474823,0,0,-377,-47.125
1764842845.7514782,0,0,-428,-53.500
1764842845.7554767,0,0,-339,-42.375
1764842845.759468,0,0,-183,-22.875
1764842845.7634573,0,0,187,23.375
1764842845.767484,0,0,481,60.125
1764842845.7714784,0,0,285,35.625
1764842845.775477,0,0,-8,-1.000
1764842845.7794805,0,0,-134,-16.750
1764842845.7834709,0,0,-177,-22.125
1764842845.7874727,0,0,-289,-36.125
1764842845.7914612,0,0,-355,-44.375
1764842845.795462,0,0,-305,-38.125
1764842845.7994804,0,0,-176,-22.000
1764842845.8034742,0,0,78,9.750
1764842845.807484,0,0,271,33.875
1764842845.8114777,0,0,125,15.625
1764842845.8154776,0,0,-76,-9.500
1764842845.8195164,0,0,-140,-17.500
1764842845.823478,0,0,19,2.375
1764842845.8274782,0,0,206,25.750
1764842845.8314745,0,0,88,11.000
1764842845.835476,0,0,-93,-11.625
1764842845.839481,0,0,-140,-17.500
1764842845.8434732,0,0,62,7.750
1764842845.8474808,0,0,320,40.000
1764842845.8514748,0,0,194,24.250
1764842845.8554766,0,0,-41,-5.125
1764842845.8594792,0,0,-136,-17.000
1764842845.8635454,0,0,-38,-4.750
1764842845.8674932,0,0,88,11.000
1764842845.8714623,0,0,-10,-1.250
1764842845.8754609,0,0,-134,-16.750
1764842845.8794816,0,0,-144,-18.000
1764842845.883478,0,0,77,9.625
1764842845.887477,0,0,407,50.875
1764842845.8914583,0,0,291,36.375
1764842845.895461,0,0,17,2.125
1764842845.8994794,0,0,-115,-14.375
1764842845.9034798,0,0,-33,-4.125
1764842845.907484,0,0,121,15.125
1764842845.9114738,0,0,32,4.000
1764842845.9154713,0,0,-119,-14.875
1764842845.919481,0,0,-149,-18.625
1764842845.9235175,0,0,39,4.875
1764842845.9274838,0,0,369,46.125
1764842845.9314718,0,0,281,35.125
1764842845.9354742,0,0,12,1.500
1764842845.9394736,0,0,-117,-14.625
1764842845.9434621,0,0,56,7.000
1764842845.9474785,0,0,492,61.500
1764842845.9514725,0,0,423,52.875
1764842845.955469,0,0,95,11.875
1764842845.9594638,0,0,-98,-12.250
1764842845.9634588,0,0,-169,-21.125
1764842845.9674807,0,0,-302,-37.750
1764842845.9714751,0,0,-380,-47.500
1764842845.975473,0,0,-353,-44.125
1764842845.9797168,0,0,-217,-27.125
1764842845.983705,0,0,-18,-2.250
1764842845.987514,0,0,198,24.750
1764842845.991477,0,0,116,14.500
1764842845.9954739,0,0,-78,-9.750
1764842845.999477,0,0,-138,-17.250
1764842846.0034711,0,0,-39,-4.875
1764842846.0074825,0,0,187,23.375
1764842846.0114741,0,0,129,16.125
1764842846.0154705,0,0,-63,-7.875
1764842846.019476,0,0,-130,-16.250
1764842846.0234778,0,0,-40,-5.000
1764842846.0274813,0,0,190,23.750
1764842846.0314748,0,0,138,17.250
1764842846.035474,0,0,-61,-7.625
1764842846.039466,0,0,-135,-16.875
1764842846.0434606,0,0,-57,-7.125
1764842846.0474772,0,0,135,16.875
1764842846.0514753,0,0,83,10.375
1764842846.0554729,0,0,-91,-11.375
1764842846.0594761,0,0,-142,-17.750
1764842846.0686858,0,0,-54,-6.750
1764842846.0715144,0,0,-129,-16.125
1764842846.0754747,0,0,-215,-26.875
1764842846.0794642,0,0,-174,-21.750
1764842846.083455,0,0,-87,-10.875
1764842846.087475,0,0,-73,-9.125
1764842846.0914738,0,0,-164,-20.500
1764842846.0954752,0,0,-240,-30.000
1764842846.0994687,0,0,-184,-23.000
1764842846.103456,0,0,-35,-4.375
1764842846.107476,0,0,288,36.000
1764842846.1114748,0,0,284,35.500
1764842846.1154714,0,0,43,5.375
1764842846.1194768,0,0,-93,-11.625
1764842846.123515,0,0,-99,-12.375
1764842846.12748,0,0,-89,-11.125
1764842846.131469,0,0,-162,-20.250
1764842846.1354723,0,0,-233,-29.125
1764842846.1394784,0,0,-180,-22.500
1764842846.1434722,0,0,-74,-9.250
1764842846.1474729,0,0,42,5.250
1764842846.1514683,0,0,-13,-1.625
1764842846.155473,0,0,-137,-17.125
1764842846.1594758,0,0,-141,-17.625
1764842846.1634817,0,0,-77,-9.625
1764842846.1674874,0,0,-28,-3.500
1764842846.171474,0,0,-103,-12.875
1764842846.1754725,0,0,-195,-24.375
1764842846.1794653,0,0,-159,-19.875
1764842846.1834567,0,0,-76,-9.500
1764842846.187456,0,0,-61,-7.625
1764842846.191454,0,0,-155,-19.375
1764842846.195454,0,0,-231,-28.875
1764842846.19946,0,0,-174,-21.750
1764842846.203454,0,0,-68,-8.500
1764842846.2074745,0,0,49,6.125
1764842846.2114732,0,0,2,0.250
1764842846.2154713,0,0,-123,-15.375
1764842846.219476,0,0,-134,-16.750
1764842846.2235024,0,0,-51,-6.375
1764842846.2274787,0,0,201,25.125
1764842846.2314706,0,0,228,28.500
1764842846.2354674,0,0,37,4.625
1764842846.2394724,0,0,-71,-8.875
1764842846.243472,0,0,-69,-8.625
1764842846.2474704,0,0,-48,-6.000
1764842846.251456,0,0,-124,-15.500
1764842846.255453,0,0,-206,-25.750
1764842846.2594757,0,0,-169,-21.125
1764842846.2634735,0,0,-55,-6.875
1764842846.267554,0,0,262,32.750
1764842846.271487,0,0,65,8.125
1764842846.2754698,0,0,-59,-7.375
1764842846.2794652,0,0,-73,-9.125
1764842846.2834573,0,0,-173,-21.625
1764842846.2874622,0,0,-321,-40.125
1764842846.291455,0,0,-350,-43.750
1764842846.2954516,0,0,-224,-28.000
1764842846.299453,0,0,-70,-8.750
1764842846.3034525,0,0,-9,-1.125
1764842846.3074763,0,0,-102,-12.750
1764842846.3114731,0,0,-198,-24.750
1764842846.3154671,0,0,-165,-20.625
1764842846.319472,0,0,-63,-7.875
1764842846.3234668,0,0,34,4.250
1764842846.3274806,0,0,-17,-2.125
1764842846.3314686,0,0,-130,-16.250
1764842846.3354716,0,0,-133,-16.625
1764842846.3394737,0,0,-59,-7.375
1764842846.3434653,0,0,40,5.000
1764842846.3474708,0,0,7,0.875
1764842846.351468,0,0,-106,-13.250
1764842846.3554704,0,0,-121,-15.125
1764842846.359474,0,0,-48,-6.000
1764842846.3634634,0,0,122,15.250
1764842846.3674717,0,0,143,17.875
1764842846.371468,0,0,-1,-0.125
1764842846.3754816,0,0,-77,-9.625
1764842846.379471,0,0,-53,-6.625
1764842846.3834517,0,0,-100,-12.500
1764842846.3874655,0,0,-252,-31.500
1764842846.3914704,0,0,-301,-37.625
1764842846.395471,0,0,-206,-25.750
1764842846.3994617,0,0,-65,-8.125
1764842846.4034455,0,0,-46,-5.750
1764842846.4074745,0,0,-168,-21.000
1764842846.4114685,0,0,-234,-29.250
1764842846.4154701,0,0,-162,-20.250
1764842846.4194748,0,0,-26,-3.250
1764842846.4234705,0,0,233,29.125
1764842846.4274673,0,0,360,45.000
1764842846.4314508,0,0,178,22.250
1764842846.435451,0,0,-6,-0.750
1764842846.4394796,0,0,-56,-7.000
1764842846.4434755,0,0,-152,-19.000
1764842846.4474754,0,0,-348,-43.500
1764842846.4514668,0,0,-380,-47.500
1764842846.4554663,0,0,-243,-30.375
1764842846.4594762,0,0,-58,-7.250
1764842846.4634702,0,0,234,29.250
1764842846.4675493,0,0,405,50.625
1764842846.4714818,0,0,231,28.875
1764842846.475468,0,0,33,4.125
1764842846.479462,0,0,-22,-2.750
1764842846.4834526,0,0,-182,-22.750
1764842846.4874737,0,0,-489,-61.125
1764842846.4914684,0,0,-517,-64.625
1764842846.4954672,0,0,-316,-39.500
1764842846.499462,0,0,-71,-8.875
1764842846.5034528,0,0,65,8.125
1764842846.5074766,0,0,-4,-0.500
1764842846.5114694,0,0,-122,-15.250
1764842846.5154688,0,0,-137,-17.125
1764842846.5194683,0,0,-45,-5.625
1764842846.52347,0,0,41,5.125
1764842846.5275161,0,0,-15,-1.875
1764842846.531468,0,0,-116,-14.500
1764842846.5354655,0,0,-129,-16.125
1764842846.5394576,0,0,-37,-4.625
1764842846.543449,0,0,150,18.750
1764842846.5474637,0,0,273,34.125
1764842846.551469,0,0,148,18.500
1764842846.5554652,0,0,3,0.375
1764842846.5594676,0,0,-16,-2.000
1764842846.5634625,0,0,47,5.875
1764842846.5674756,0,0,39,4.875
1764842846.5714688,0,0,-55,-6.875
1764842846.5754623,0,0,-97,-12.125
1764842846.579465,0,0,-35,-4.375
1764842846.5834646,0,0,45,5.625
1764842846.5874717,0,0,21,2.625
1764842846.5914648,0,0,-71,-8.875
1764842846.595466,0,0,-107,-13.375
1764842846.5994718,0,0,-37,-4.625
1764842846.6034665,0,0,-97,-12.125
1764842846.6074722,0,0,-456,-57.000
1764842846.6114645,0,0,-544,-68.000
1764842846.6154659,0,0,-361,-45.125
1764842846.6194692,0,0,-89,-11.125
1764842846.6234648,0,0,176,22.000
1764842846.6275003,0,0,368,46.000
1764842846.6314683,0,0,250,31.250
1764842846.6354668,0,0,59,7.375
1764842846.6394696,0,0,8,1.000
1764842846.6434612,0,0,52,6.500
1764842846.6474702,0,0,55,6.875
1764842846.651471,0,0,-29,-3.625
1764842846.6554658,0,0,-78,-9.750
1764842846.6594675,0,0,-20,-2.500
1764842846.6634622,0,0,105,13.125
1764842846.6675472,0,0,214,26.750
1764842846.671479,0,0,124,15.500
1764842846.675464,0,0,-5,-0.625
1764842846.679459,0,0,-10,-1.250
1764842846.683448,0,0,184,23.000
1764842846.6874702,0,0,586,73.250
1764842846.6914628,0,0,525,65.625
1764842846.6954722,0,0,223,27.875
1764842846.6994627,0,0,45,5.625
1764842846.703449,0,0,79,9.875
1764842846.7074633,0,0,268,33.500
1764842846.7114644,0,0,215,26.875
1764842846.7154675,0,0,46,5.750
1764842846.719458,0,0,-8,-1.000
1764842846.723447,0,0,79,9.875
1764842846.727507,0,0,264,33.000
1764842846.7314675,0,0,202,25.250
1764842846.7354643,0,0,32,4.000
1764842846.7394712,0,0,-18,-2.250
1764842846.7434652,0,0,-116,-14.500
1764842846.747473,0,0,-653,-81.625
1764842846.7514656,0,0,-818,-102.250
1764842846.7554617,0,0,-573,-71.625
1764842846.7594593,0,0,-191,-23.875
1764842846.7634506,0,0,75,9.375
1764842846.7674694,0,0,120,15.000
1764842846.771462,0,0,2,0.250
1764842846.775462,0,0,-96,-12.000
1764842846.7794533,0,0,-51,-6.375
1764842846.783449,0,0,97,12.125
1764842846.7874537,0,0,370,46.250
1764842846.7914457,0,0,337,42.125
1764842846.7954457,0,0,122,15.250
1764842846.7994614,0,0,22,2.750
1764842846.8034647,0,0,78,9.750
1764842846.8074691,0,0,329,41.125
1764842846.8114665,0,0,316,39.500
1764842846.8154626,0,0,117,14.625
1764842846.8194673,0,0,18,2.250
1764842846.8234656,0,0,45,5.625
1764842846.827503,0,0,195,24.375
1764842846.8314664,0,0,160,20.000
1764842846.8354623,0,0,16,2.000
1764842846.8394678,0,0,-17,-2.125
1764842846.8434627,0,0,25,3.125
1764842846.8474705,0,0,9,1.125
1764842846.8514657,0,0,-87,-10.875
1764842846.855466,0,0,-152,-19.000
1764842846.8594666,0,0,-84,-10.500
1764842846.863463,0,0,36,4.500
1764842846.8675501,0,0,169,21.125
1764842846.8714814,0,0,114,14.250
1764842846.8754663,0,0,-24,-3.000
1764842846.8794556,0,0,-41,-5.125
1764842846.8834453,0,0,32,4.000
1764842846.8874655,0,0,113,14.125
1764842846.8914647,0,0,-21,-2.625
1764842846.8954628,0,0,-38,-4.750
1764842846.899455,0,0,16,2.000
1764842846.9034455,0,0,13,1.625
1764842846.907469,0,0,-82,-10.250
1764842846.911467,0,0,-151,-18.875
1764842846.9154625,0,0,-87,-10.875
1764842846.9194667,0,0,-24,-3.000
1764842846.9234598,0,0,-390,-48.750
1764842846.927469,0,0,-667,-83.375
1764842846.9314618,0,0,-552,-69.000
1764842846.9354634,0,0,-227,-28.375
1764842846.939466,0,0,17,2.125
1764842846.9434574,0,0,-113,-14.125
1764842846.9474623,0,0,-320,-40.000
1764842846.951458,0,0,-327,-40.875
1764842846.9554622,0,0,-149,-18.625
1764842846.9594667,0,0,32,4.000
1764842846.9634595,0,0,57,7.125
1764842846.9674656,0,0,-54,-6.750
1764842846.9714599,0,0,-131,-16.375
1764842846.9754605,0,0,-70,-8.750
1764842846.9796863,0,0,48,6.000
1764842846.983683,0,0,249,31.125
1764842846.9874961,0,0,260,32.500
1764842846.9914606,0,0,96,12.000
1764842846.9954572,0,0,20,2.500
1764842846.999465,0,0,33,4.125
1764842847.00346,0,0,-51,-6.375
1764842847.0074735,0,0,-199,-24.875
1764842847.011465,0,0,-232,-29.000
1764842847.015467,0,0,-112,-14.000
1764842847.0194583,0,0,44,5.500
1764842847.0234456,0,0,187,23.375
1764842847.027464,0,0,153,19.125
1764842847.0314991,0,0,18,2.250
1764842847.0354617,0,0,-13,-1.625
1764842847.0394552,0,0,39,4.875
1764842847.0434618,0,0,87,10.875
1764842847.0474703,0,0,13,1.625
1764842847.0514588,0,0,-77,-9.625
1764842847.0554578,0,0,-51,-6.375
1764842847.059459,0,0,25,3.125
1764842847.0634599,0,0,-323,-40.375
1764842847.0726125,0,0,-658,-82.250
1764842847.075483,0,0,-302,-37.750
1764842847.0794675,0,0,20,2.500
1764842847.083462,0,0,145,18.125
1764842847.0874648,0,0,53,6.625
1764842847.091458,0,0,-62,-7.750
1764842847.095457,0,0,-48,-6.000
1764842847.099461,0,0,43,5.375
1764842847.103462,0,0,-17,-2.125
1764842847.1074705,0,0,-206,-25.750
1764842847.1114643,0,0,-251,-31.375
1764842847.115457,0,0,-124,-15.500
1764842847.119463,0,0,40,5.000
1764842847.1234584,0,0,-84,-10.500
1764842847.1274676,0,0,-374,-46.750
1764842847.1314983,0,0,-395,-49.375
1764842847.135461,0,0,-189,-23.625
1764842847.139463,0,0,33,4.125
1764842847.1434543,0,0,-198,-24.750
1764842847.1474621,0,0,-647,-80.875
1764842847.15146,0,0,-625,-78.125
1764842847.15546,0,0,-297,-37.125
1764842847.159462,0,0,33,4.125
1764842847.1634774,0,0,89,11.125
1764842847.1674666,0,0,-103,-12.875
1764842847.1714435,0,0,-188,-23.500
1764842847.1754415,0,0,-100,-12.500
1764842847.1794622,0,0,60,7.500
1764842847.1834562,0,0,209,26.125
1764842847.1874535,0,0,213,26.625
1764842847.1914403,0,0,93,11.625
1764842847.195442,0,0,39,4.875
1764842847.199467,0,0,83,10.375
1764842847.203456,0,0,-36,-4.500
1764842847.2074573,0,0,-333,-41.625
1764842847.211445,0,0,-370,-46.250
1764842847.2154424,0,0,-185,-23.125
1764842847.2194588,0,0,48,6.000
1764842847.223455,0,0,236,29.500
1764842847.2274559,0,0,271,33.875
1764842847.2314754,0,0,151,18.875
1764842847.2354422,0,0,75,9.375
1764842847.2394598,0,0,105,13.125
1764842847.2434602,0,0,152,19.000
1764842847.2474656,0,0,80,10.000
1764842847.251458,0,0,-25,-3.125
1764842847.2554593,0,0,-39,-4.875
1764842847.2594645,0,0,49,6.125
1764842847.2634587,0,0,236,29.500
1764842847.2674549,0,0,373,46.625
1764842847.2715247,0,0,258,32.250
1764842847.2754693,0,0,112,14.000
1764842847.2794614,0,0,90,11.250
1764842847.283457,0,0,209,26.125
1764842847.2874634,0,0,300,37.500
1764842847.291455,0,0,191,23.875
1764842847.2954519,0,0,73,9.125
1764842847.299456,0,0,76,9.500
1764842847.3034558,0,0,132,16.500
1764842847.3074634,0,0,94,11.750
1764842847.3114552,0,0,2,0.250
1764842847.3154523,1,0,-29,-3.625
1764842847.3194609,0,0,50,6.250
1764842847.323458,0,0,148,18.500
1764842847.327468,0,0,132,16.500
1764842847.3314538,0,0,29,3.625
1764842847.3354545,0,1,-21,-2.625
1764842847.3394604,0,0,44,5.500
1764842847.343457,0,0,255,31.875
1764842847.3474598,0,0,525,65.625
1764842847.351457,0,0,422,52.750
1764842847.3554564,0,1,188,23.500
1764842847.359458,0,0,90,11.250
1764842847.3634555,0,0,106,13.250
1764842847.3674634,0,0,91,11.375
1764842847.3714569,0,0,6,0.750
1764842847.375452,1,1,-39,-4.875
1764842847.3794575,0,0,31,3.875
1764842847.3834534,0,0,37,4.625
1764842847.387463,0,0,-212,-26.500
1764842847.3914647,0,0,-318,-39.750
1764842847.3954542,1,1,-224,-28.000
1764842847.3994482,0,0,-20,-2.500
1764842847.4034343,0,0,235,29.375
1764842847.407455,0,0,535,66.875
1764842847.4114573,0,0,451,56.375
1764842847.4154549,1,1,200,25.000
1764842847.419443,0,0,87,10.875
1764842847.423435,0,0,81,10.125
1764842847.4274573,0,0,22,2.750
1764842847.431491,0,0,-61,-7.625
1764842847.4354584,1,1,-84,-10.500
1764842847.4394572,0,0,7,0.875
1764842847.4434521,0,0,100,12.500
1764842847.4474611,0,0,66,8.250
1764842847.451455,0,0,-31,-3.875
1764842847.455456,1,1,-76,-9.500
1764842847.4594605,0,0,5,0.625
1764842847.463454,0,0,104,13.000
1764842847.4674494,0,0,77,9.625
1764842847.471527,0,0,-28,-3.500
1764842847.4754713,1,1,-79,-9.875
1764842847.4794633,0,0,2,0.250
1764842847.483452,0,0,100,12.500
1764842847.4874606,0,0,65,8.125
1764842847.4914572,0,0,-43,-5.375
1764842847.4954562,1,1,-92,-11.500
1764842847.4994478,0,0,-3,-0.375
1764842847.5034356,0,0,-64,-8.000
1764842847.507463,0,0,-1067,-133.375
1764842847.5114565,0,0,-711,-88.875
1764842847.5154552,1,1,-186,-23.250
1764842847.5194607,0,0,207,25.875
1764842847.5234528,0,0,536,67.000
1764842847.5274625,0,0,480,60.000
1764842847.5314538,0,0,223,27.875
1764842847.5354893,1,1,97,12.125
1764842847.5394447,0,0,29,3.625
1764842847.5434377,0,0,-353,-44.125
1764842847.5474498,0,0,-534,-66.750
1764842847.5514526,0,0,-387,-48.375
1764842847.5554516,1,1,-85,-10.625
1764842847.5594578,0,0,154,19.250
1764842847.5634527,0,0,300,37.500
1764842847.5674632,0,0,228,28.500
1764842847.5714533,0,0,78,9.750
1764842847.5754502,1,1,59,7.375
1764842847.579456,0,0,133,16.625
1764842847.5834534,0,0,269,33.625
1764842847.5874631,0,0,227,28.375
1764842847.5914524,0,0,88,11.000
1764842847.595465,1,1,62,7.750
1764842847.5994499,0,0,114,14.250
1764842847.603435,0,0,177,22.125
1764842847.6074557,0,0,114,14.250
1764842847.611452,0,0,13,1.625
1764842847.6154497,1,1,32,4.000
1764842847.6194413,0,0,98,12.250
1764842847.623436,0,0,27,3.375
1764842847.6274548,0,0,-101,-12.625
1764842847.6314547,0,0,-135,-16.875
1764842847.6354525,1,1,-26,-3.250
1764842847.6394567,0,0,102,12.750
1764842847.6434534,0,0,134,16.750
1764842847.6474617,0,0,43,5.375
1764842847.6514544,0,0,-42,-5.250
1764842847.6554494,1,1,4,0.500
1764842847.659456,0,0,113,14.125
1764842847.6634507,0,0,320,40.000
1764842847.6674583,0,0,320,40.000
1764842847.671526,0,0,152,19.000
1764842847.6754706,1,1,76,9.500
1764842847.6794503,0,0,91,11.375
1764842847.6834338,0,0,73,9.125
1764842847.6874542,0,0,-29,-3.625
1764842847.6914558,0,0,-93,-11.625
1764842847.695453,1,1,-22,-2.750
1764842847.6994438,0,0,78,9.750
1764842847.703433,0,0,-22,-2.750
1764842847.7074516,0,0,-196,-24.500
1764842847.7114527,0,0,-218,-27.250
1764842847.715452,1,1,-73,-9.125
1764842847.7194521,0,0,72,9.000
1764842847.7234457,0,0,-33,-4.125
1764842847.7274547,0,0,-229,-28.625
1764842847.7314534,0,0,-245,-30.625
1764842847.7354863,1,1,-86,-10.750
1764842847.7394552,0,0,57,7.125
1764842847.7434485,0,0,-387,-48.375
1764842847.747455,0,0,-831,-103.875
1764842847.7514503,0,0,-693,-86.625
1764842847.7554486,1,1,-265,-33.125
1764842847.759455,0,0,87,10.875
1764842847.7634504,0,0,209,26.125
1764842847.767457,0,0,106,13.250
1764842847.7714467,0,0,-12,-1.500
1764842847.7754493,1,1,9,1.125
1764842847.7794452,0,0,105,13.125
1764842847.7834342,0,0,237,29.625
1764842847.7874458,0,0,220,27.500
1764842847.7914474,0,0,94,11.750
1764842847.7954547,1,1,58,7.250
1764842847.7994606,0,0,106,13.250
1764842847.803452,0,0,165,20.625
1764842847.8074474,0,0,107,13.375
1764842847.8114347,0,0,10,1.250
1764842847.8154352,1,1,18,2.250
1764842847.8194506,0,0,96,12.000
1764842847.8234506,0,0,103,12.875
1764842847.8274474,0,0,-24,-3.000
1764842847.8314316,0,0,-98,-12.250
1764842847.8354623,1,1,-34,-4.250
1764842847.839455,0,0,85,10.625
1764842847.8434532,0,0,0,0.000
1764842847.8474572,0,0,-238,-29.750
1764842847.8514488,0,0,-276,-34.500
1764842847.855447,1,1,-119,-14.875
1764842847.859458,0,0,72,9.000
1764842847.8634503,0,0,-198,-24.750
1764842847.8674486,0,0,-674,-84.250
1764842847.8715231,0,0,-639,-79.875
1764842847.8754635,1,1,-281,-35.125
1764842847.87945,0,0,67,8.375
1764842847.8834326,0,0,205,25.625
1764842847.8874505,0,0,96,12.000
1764842847.8914516,0,0,-20,-2.500
1764842847.895446,1,1,-4,-0.500
1764842847.899436,0,0,98,12.250
1764842847.9034326,0,0,66,8.250
1764842847.9074523,0,0,-138,-17.250
1764842847.911453,0,0,-198,-24.750
1764842847.9154453,1,1,-86,-10.750
1764842847.9194517,0,0,89,11.125
1764842847.9234493,0,0,212,26.500
1764842847.9274614,0,0,160,20.000
1764842847.9314525,0,0,49,6.125
1764842847.9354827,1,1,29,3.625
1764842847.9394722,0,0,103,12.875
1764842847.9434505,0,0,264,33.000
1764842847.947449,0,0,341,42.625
1764842847.9514332,0,0,220,27.500
1764842847.9554317,1,1,114,14.250
1764842847.9594524,0,0,117,14.625
1764842847.9634478,0,0,123,15.375
1764842847.967449,0,0,6,0.750
1764842847.9714336,0,0,-72,-9.000
1764842847.9754307,1,1,-35,-4.375
1764842847.9796848,0,0,87,10.875
1764842847.9836662,0,0,143,17.875
1764842847.987482,0,0,26,3.250
1764842847.9914489,0,0,-70,-8.750
1764842847.9954438,1,1,-46,-5.750
1764842847.9994507,0,0,80,10.000
1764842848.003447,0,0,142,17.750
1764842848.0074542,0,0,16,2.000
1764842848.011446,0,0,-81,-10.125
1764842848.0154452,1,1,-55,-6.875
1764842848.019451,0,0,75,9.375
1764842848.0234463,0,0,164,20.500
1764842848.02745,0,0,97,12.125
1764842848.0314467,0,0,10,1.250
1764842848.0354903,1,1,9,1.125
1764842848.0394418,0,0,99,12.375
1764842848.043448,0,0,206,25.750
1764842848.0474987,0,0,199,24.875
1764842848.0515137,0,0,78,9.750
1764842848.0554607,1,1,5,0.625
1764842848.0594401,0,0,62,7.750
1764842848.0634336,0,0,38,4.750
1764842848.0674472,0,0,-252,-31.500
1764842848.0765853,0,0,27,3.375
1764842848.0795095,0,0,27,3.375
1764842848.0834644,0,0,207,25.875
1764842848.0874567,0,0,243,30.375
1764842848.0914462,0,0,137,17.125
1764842848.0954468,1,1,48,6.000
1764842848.099443,0,0,83,10.375
1764842848.103434,0,0,147,18.375
1764842848.1074548,0,0,89,11.125
1764842848.1114469,0,0,-11,-1.375
1764842848.1154423,1,1,-32,-4.000
1764842848.119445,0,0,156,19.500
1764842848.1234477,0,0,147,18.375
1764842848.1274529,0,0,58,7.250
1764842848.131441,0,0,7,0.875
1764842848.1354425,1,1,71,8.875
1764842848.1394873,0,0,68,8.500
1764842848.1434455,0,0,-245,-30.625
1764842848.1474502,0,0,-369,-46.125
1764842848.151445,0,0,-243,-30.375
1764842848.1554444,1,1,1,0.125
1764842848.159448,0,0,145,18.125
1764842848.1634436,0,0,20,2.500
1764842848.1674557,0,0,-105,-13.125
1764842848.1714501,0,0,-101,-12.625
1764842848.1754422,1,1,37,4.625
1764842848.1794455,0,0,89,11.125
1764842848.1834452,0,0,-218,-27.250
1764842848.1874526,0,0,-362,-45.250
1764842848.1914463,0,0,-247,-30.875
1764842848.1954417,1,1,-2,-0.250
1764842848.1994467,0,0,169,21.125
1764842848.2034438,0,0,123,15.375
1764842848.2074647,0,0,8,1.000
1764842848.211461,0,0,-33,-4.125
1764842848.2154515,1,1,59,7.375
1764842848.2194345,0,0,109,13.625
1764842848.2234278,0,0,-153,-19.125
1764842848.227444,0,0,-305,-38.125
1764842848.231429,0,0,-221,-27.625
1764842848.2354255,1,1,4,0.500
1764842848.2394595,0,0,136,17.000
1764842848.2434273,0,0,-78,-9.750
1764842848.2474473,0,0,-241,-30.125
1764842848.2514474,0,0,-191,-23.875
1764842848.2554438,1,1,7,0.875
1764842848.2594476,0,0,202,25.250
1764842848.2635422,0,0,352,44.000
1764842848.2674596,0,0,284,35.500
1764842848.271431,0,0,133,16.625
1764842848.275492,1,1,111,13.875
1764842848.2794416,0,0,132,16.500
1764842848.2834275,0,0,-45,-5.625
1764842848.2874365,0,0,-188,-23.500
1764842848.2914286,0,0,-163,-20.375
1764842848.295428,1,1,10,1.250
1764842848.2994313,0,0,174,21.750
1764842848.3034265,0,0,247,30.875
1764842848.3074496,0,0,162,20.250
1764842848.311445,0,0,55,6.875
1764842848.3154469,1,1,76,9.500
1764842848.3194482,0,0,139,17.375
1764842848.3234384,0,0,88,11.000
1764842848.3274488,0,0,-19,-2.375
1764842848.3314414,0,0,-54,-6.750
1764842848.335442,1,1,42,5.250
1764842848.339483,0,0,106,13.250
1764842848.3434544,0,0,-258,-32.250
1764842848.3474524,0,0,-508,-63.500
1764842848.351445,0,0,-389,-48.625
1764842848.3554447,1,1,-81,-10.125
1764842848.3594356,0,0,123,15.375
1764842848.3634238,0,0,-152,-19.000
1764842848.3674483,0,0,-408,-51.000
1764842848.3714418,0,0,-334,-41.750
1764842848.375439,1,1,-64,-8.000
1764842848.3794339,0,0,102,12.750
1764842848.3834252,0,0,-473,-59.125
1764842848.3874452,0,0,-883,-110.375
1764842848.3914433,0,0,-660,-82.500
1764842848.3954408,1,1,-174,-21.750
1764842848.399447,0,0,176,22.000
1764842848.403444,0,0,194,24.250
1764842848.4074502,0,0,39,4.875
1764842848.41144,0,0,-37,-4.625
1764842848.4154418,1,1,48,6.000
1764842848.419446,0,0,158,19.750
1764842848.4234424,0,0,-37,-4.625
1764842848.4274461,0,0,-271,-33.875
1764842848.4314394,0,0,-243,-30.375
1764842848.43544,1,1,-23,-2.875
1764842848.4395366,0,0,174,21.750
1764842848.4435096,0,0,143,17.875
1764842848.4474494,0,0,-3,-0.375
1764842848.4514425,0,0,-55,-6.875
1764842848.4554386,1,1,46,5.750
1764842848.4594378,0,0,194,24.250
1764842848.463441,0,0,491,61.375
1764842848.4674425,0,0,567,70.875
1764842848.4714408,0,0,362,45.250
1764842848.4755092,1,1,210,26.250
1764842848.4794655,0,0,182,22.750
1764842848.4834425,0,0,234,29.250
1764842848.487447,0,0,187,23.375
1764842848.4914427,0,0,89,11.125
1764842848.4954417,1,1,91,11.375
1764842848.499433,0,0,168,21.000
1764842848.5034254,0,0,349,43.625
1764842848.507434,0,0,379,47.375
1764842848.5114446,0,0,231,28.875
1764842848.5154243,1,1,144,18.000
1764842848.5194457,0,0,152,19.000
1764842848.5234408,0,0,153,19.125
1764842848.5274465,0,0,57,7.125
1764842848.5314407,0,0,-9,-1.125
1764842848.5354412,1,1,42,5.250
1764842848.5394325,0,0,141,17.625
1764842848.5434587,0,0,147,18.375
1764842848.5474396,0,0,23,2.875
1764842848.5514426,0,0,-50,-6.250
1764842848.5554423,1,1,14,1.750
1764842848.559444,0,0,135,16.875
1764842848.563436,0,0,308,38.500
1764842848.567445,0,0,337,42.125
1764842848.5714417,0,0,196,24.500
1764842848.5754433,1,1,115,14.375
1764842848.579447,0,0,135,16.875
1764842848.5834372,0,0,108,13.500
1764842848.5874414,0,0,-38,-4.750
1764842848.5914373,0,0,-104,-13.000
1764842848.5954401,1,1,-23,-2.875
1764842848.599444,0,0,113,14.125
1764842848.6034377,0,0,172,21.500
1764842848.6074462,0,0,73,9.125
1764842848.61144,0,0,-19,-2.375
1764842848.6154394,1,1,13,1.625
1764842848.6194441,0,0,114,14.250
1764842848.623446,0,0,40,5.000
1764842848.627445,0,0,-217,-27.125
1764842848.6314259,0,0,-264,-33.000
1764842848.6354249,1,1,-110,-13.750
1764842848.6394427,0,0,93,11.625
1764842848.643472,0,0,138,17.250
1764842848.6474373,0,0,-28,-3.500
1764842848.651424,0,0,-113,-14.125
1764842848.6554203,1,1,-44,-5.500
1764842848.6594467,0,0,100,12.500
1764842848.6634405,0,0,143,17.875
1764842848.6674466,0,0,-1,-0.125
1764842848.671438,0,0,-86,-10.750
1764842848.67551,1,1,-28,-3.500
1764842848.6794512,0,0,106,13.250
1764842848.6834266,0,0,86,10.750
1764842848.687447,0,0,-158,-19.750
1764842848.691439,0,0,-228,-28.500
1764842848.6954377,1,1,-104,-13.000
1764842848.6994307,0,0,85,10.625
1764842848.7034233,0,0,152,19.000
1764842848.707443,0,0,2,0.250
1764842848.711441,0,0,-90,-11.250
1764842848.7154357,1,1,-39,-4.875
1764842848.7194388,0,0,98,12.250
1764842848.7234414,0,0,-86,-10.750
1764842848.7274463,0,0,-657,-82.125
1764842848.7314367,0,0,-698,-87.250
1764842848.7354362,1,1,47,5.875
1764842848.739441,0,0,112,14.000
1764842848.7434454,0,0,-222,-27.750
1764842848.7474482,0,0,-323,-40.375
1764842848.7514243,0,0,-162,-20.250
1764842848.7554169,1,1,82,10.250
1764842848.7594373,0,0,197,24.625
1764842848.7634373,0,0,82,10.250
1764842848.767438,0,0,-21,-2.625
1764842848.7714205,0,0,-1,-0.125
1764842848.775421,1,1,119,14.875
1764842848.77944,0,0,183,22.875
1764842848.7834363,0,0,49,6.125
1764842848.7874355,0,0,-52,-6.500
1764842848.7914243,0,0,-21,-2.625
1764842848.7954223,1,1,113,14.125
1764842848.7994223,0,0,183,22.875
1764842848.8034186,0,0,49,6.125
1764842848.80744,0,0,-52,-6.500
1764842848.81144,0,0,-27,-3.375
1764842848.8154387,1,1,103,12.875
1764842848.8194435,0,0,172,21.500
1764842848.8234355,0,0,34,4.250
1764842848.8274426,0,0,-62,-7.750
1764842848.8314397,0,0,-22,-2.750
1764842848.83544,1,1,125,15.625
1764842848.839443,0,0,363,45.375
1764842848.8434334,0,0,693,86.625
1764842848.84755,0,0,600,75.000
1764842848.8514862,0,0,314,39.250
1764842848.8554814,0,0,161,20.125
1764842848.8594878,0,0,-47,-5.875
1764842848.8634791,0,0,-709,-88.625
1764842848.8674839,0,0,-838,-104.750
1764842848.871478,0,0,-479,-59.875
1764842848.8755622,0,0,-23,-2.875
1764842848.8794951,0,0,261,32.625
1764842848.883464,0,0,307,38.375
1764842848.887487,0,0,185,23.125
1764842848.8914835,0,0,82,10.250
1764842848.8954816,0,0,116,14.500
1764842848.899473,0,0,173,21.625
1764842848.903462,0,0,73,9.125
1764842848.9074821,0,0,-32,-4.000
1764842848.9114773,0,0,-35,-4.375
1764842848.9154775,0,0,87,10.875
1764842848.9194837,0,0,167,20.875
1764842848.9234776,0,0,-20,-2.500
1764842848.9274907,0,0,-160,-20.000
1764842848.9314797,0,0,-125,-15.625
1764842848.935478,0,0,52,6.500
1764842848.9394836,0,0,183,22.875
1764842848.9434795,0,0,98,12.250
1764842848.947574,0,0,-21,-2.625
1764842848.9514363,0,0,-37,-4.625
1764842848.9554343,0,0,79,9.875
1764842848.9594412,0,0,7,0.875
1764842848.9634335,0,0,-922,-115.250
1764842848.9674437,0,0,-1236,-154.500
1764842848.971437,0,0,-785,-98.125
1764842848.9754343,0,0,-145,-18.125
1764842848.979656,0,0,163,20.375
1764842848.9836578,0,0,-284,-35.500
1764842848.9874718,0,0,-555,-69.375
1764842848.9914353,0,0,-390,-48.750
1764842848.995431,0,0,-29,-3.625
1764842848.9994342,0,0,156,19.500
1764842849.0034347,0,0,-297,-37.125
1764842849.0074394,0,0,-556,-69.500
1764842849.0114396,0,0,-380,-47.500
1764842849.0154305,0,0,-18,-2.250
1764842849.019437,0,0,249,31.125
1764842849.0234332,0,0,292,36.500
1764842849.0274484,0,0,179,22.375
1764842849.0314434,0,0,91,11.375
1764842849.035434,0,0,142,17.750
1764842849.0394273,0,0,138,17.250
1764842849.0434365,0,0,-548,-68.500
1764842849.0474405,0,0,-895,-111.875
1764842849.0514324,0,0,-606,-75.750
1764842849.055433,0,0,-95,-11.875
1764842849.0594342,0,0,172,21.500
1764842849.0634289,0,0,-493,-61.625
1764842849.06744,0,0,-920,-115.000
1764842849.0714343,0,0,-649,-81.125
1764842849.0806675,0,0,218,27.250
1764842849.083456,0,0,-173,-21.625
1764842849.0874455,0,0,-504,-63.000
1764842849.0914338,0,0,-373,-46.625
1764842849.0954335,0,0,-9,-1.125
1764842849.0994399,0,0,278,34.750
1764842849.1034334,0,0,415,51.875
1764842849.1074321,0,0,342,42.750
1764842849.111419,0,0,211,26.375
1764842849.115419,0,0,205,25.625
1764842849.1194422,0,0,245,30.625
1764842849.1234322,0,0,14,1.750
1764842849.1274395,0,0,-210,-26.250
1764842849.1314323,0,0,-167,-20.875
1764842849.1354363,0,0,64,8.000
1764842849.139441,0,0,246,30.750
1764842849.1434336,0,0,16,2.000
1764842849.14745,0,0,-253,-31.625
1764842849.1514373,0,0,-214,-26.750
1764842849.1554286,0,0,34,4.250
1764842849.1594274,0,0,259,32.375
1764842849.1634195,0,0,377,47.125
1764842849.1674376,0,0,312,39.000
1764842849.1714306,0,0,193,24.125
1764842849.175433,0,0,193,24.125
1764842849.1794279,0,0,250,31.250
1764842849.1834164,0,0,176,22.000
1764842849.1874385,0,0,22,2.750
1764842849.1914315,0,0,-13,-1.625
1764842849.1954315,0,0,105,13.125
1764842849.199438,0,0,247,30.875
1764842849.2034326,0,0,393,49.125
1764842849.20744,0,0,371,46.375
1764842849.2114322,0,0,236,29.500
1764842849.2154298,0,0,195,24.375
1764842849.2194376,0,0,226,28.250
1764842849.223433,0,0,-2,-0.250
1764842849.2274399,0,0,-284,-35.500
1764842849.2314303,0,0,-252,-31.500
1764842849.2354286,0,0,-12,-1.500
1764842849.2394357,0,0,215,26.875
1764842849.2434337,0,0,317,39.625
1764842849.2474725,0,0,244,30.500
1764842849.2514157,0,0,140,17.500
1764842849.2554138,0,0,147,18.375
1764842849.2594326,0,0,218,27.250
1764842849.2634335,0,0,135,16.875
1764842849.2674384,0,0,-70,-8.750
1764842849.2714314,0,0,-104,-13.000
1764842849.2754285,0,0,38,4.750
1764842849.2795036,0,0,201,25.125
1764842849.2834485,0,0,195,24.375
1764842849.2874365,0,0,27,3.375
1764842849.2914195,0,0,-37,-4.625
1764842849.295414,0,0,59,7.375
1764842849.2994359,0,0,202,25.250
1764842849.303429,0,0,233,29.125
1764842849.3074307,0,0,106,13.250
1764842849.3114161,0,0,28,3.500
1764842849.315414,0,0,86,10.750
1764842849.31944,0,0,199,24.875
1764842849.3234289,0,0,186,23.250
1764842849.327434,0,0,15,1.875
1764842849.3314323,0,0,-51,-6.375
1764842849.3354306,0,0,39,4.875
1764842849.339433,0,0,184,23.000
1764842849.343431,0,0,188,23.500
1764842849.3474667,0,0,-56,-7.000
1764842849.351433,0,0,26,3.250
1764842849.355432,0,0,173,21.625
1764842849.3594315,0,0,8,1.000
1764842849.3634245,0,0,-425,-53.125
1764842849.3674366,0,0,-443,-55.375
1764842849.3714314,0,0,-159,-19.875
1764842849.3754292,0,0,149,18.625
1764842849.379433,0,0,225,28.125
1764842849.383426,0,0,31,3.875
1764842849.3874345,0,0,-65,-8.125
1764842849.391431,0,0,15,1.875
1764842849.395429,0,0,172,21.500
1764842849.399434,0,0,-21,-2.625
1764842849.4034274,0,0,-559,-69.875
1764842849.407435,0,0,-581,-72.625
1764842849.4114244,0,0,-241,-30.125
1764842849.4154294,0,0,126,15.750
1764842849.4194353,0,0,264,33.000
1764842849.4234283,0,0,112,14.000
1764842849.4274282,0,0,6,0.750
1764842849.4314258,0,0,49,6.125
1764842849.4354277,0,0,182,22.750
1764842849.439432,0,0,103,12.875
1764842849.4434168,0,0,-284,-35.500
1764842849.447431,0,0,-347,-43.375
1764842849.451428,0,0,-129,-16.125
1764842849.455428,0,0,149,18.625
1764842849.459423,0,0,78,9.750
1764842849.4634123,0,0,-445,-55.625
1764842849.4674313,0,0,-524,-65.500
1764842849.4714284,0,0,-230,-28.750
1764842849.4754283,0,0,128,16.000
1764842849.479504,0,0,207,25.875
1764842849.4834466,0,0,-98,-12.250
1764842849.4874356,0,0,-203,-25.375
1764842849.4914153,0,0,-68,-8.500
1764842849.4954102,0,0,161,20.125
1764842849.4994316,0,0,161,20.125
1764842849.5034308,0,0,-251,-31.375
1764842849.5074296,0,0,-355,-44.375
1764842849.51142,0,0,-147,-18.375
1764842849.5154088,0,0,147,18.375
1764842849.5194309,0,0,267,33.375
1764842849.5234275,0,0,80,10.000
1764842849.5274396,0,0,-41,-5.125
1764842849.531431,0,0,13,1.625
1764842849.5354266,0,0,178,22.250
1764842849.5394175,0,0,322,40.250
1764842849.543413,0,0,340,42.500
1764842849.547418,0,0,241,30.125
1764842849.5514512,0,0,170,21.250
1764842849.5554209,0,0,211,26.375
1764842849.5594769,0,0,153,19.125
1764842849.5634284,0,0,-272,-34.000
1764842849.5674334,0,0,-392,-49.000
1764842849.5714333,0,0,-186,-23.250
1764842849.5754256,0,0,119,14.875
1764842849.579417,0,0,220,27.500
1764842849.58341,0,0,-113,-14.125
1764842849.587431,0,0,-262,-32.750
1764842849.5914319,0,0,-132,-16.500
1764842849.5954306,0,0,124,15.500
1764842849.5994322,0,0,208,26.000
1764842849.6034286,0,0,-158,-19.750
1764842849.6074367,0,0,-316,-39.500
1764842849.61143,0,0,-167,-20.875
1764842849.6154277,0,0,113,14.125
1764842849.6194258,0,0,269,33.625
1764842849.623425,0,0,107,13.375
1764842849.6274316,0,0,-32,-4.000
1764842849.6314278,0,0,-8,-1.000
1764842849.6354256,0,0,161,20.125
1764842849.6394322,0,0,227,28.375
1764842849.6434247,0,0,-120,-15.000
1764842849.6474347,0,0,-286,-35.750
1764842849.6514304,0,0,-153,-19.125
1764842849.6554284,0,0,116,14.500
1764842849.6594317,0,0,207,25.875
1764842849.6634247,0,0,-250,-31.250
1764842849.66743,0,0,-466,-58.250
1764842849.671427,0,0,-284,-35.500
1764842849.675429,0,0,59,7.375
1764842849.679507,0,0,268,33.500
1764842849.683441,0,0,137,17.125
1764842849.68743,0,0,-6,-0.750
1764842849.6914098,0,0,6,0.750
1764842849.695412,0,0,154,19.250
1764842849.699431,0,0,193,24.125
1764842849.7034268,0,0,-328,-41.000
1764842849.7074254,0,0,-569,-71.125
1764842849.7114086,0,0,-348,-43.500
1764842849.7154095,0,0,47,5.875
1764842849.7194314,0,0,185,23.125
1764842849.723424,0,0,-594,-74.250
1764842849.7274294,0,0,-959,-119.875
1764842849.7314246,0,0,-609,-76.125
1764842849.7354233,0,0,-39,-4.875
1764842849.7394273,0,0,228,28.500
1764842849.7434266,0,0,-387,-48.375
1764842849.74743,0,0,-735,-91.875
1764842849.7514617,0,0,-478,-59.750
1764842849.7554233,0,0,0,0.000
1764842849.7594318,0,0,294,36.750
1764842849.763427,0,0,36,4.500
1764842849.7674336,0,0,-206,-25.750
1764842849.7714229,0,0,-142,-17.750
1764842849.775422,0,0,118,14.750
1764842849.7794328,0,0,315,39.375
1764842849.7834225,0,0,203,25.375
1764842849.7874198,0,0,32,4.000
1764842849.7914066,0,0,19,2.375
1764842849.7954063,0,0,172,21.500
1764842849.7994223,0,0,297,37.125
1764842849.803422,0,0,57,7.125
1764842849.8074305,0,0,-166,-20.750
1764842849.8114283,0,0,-116,-14.500
1764842849.8154225,0,0,120,15.000
1764842849.8194125,0,0,307,38.375
1764842849.8234074,0,0,202,25.250
1764842849.827425,0,0,21,2.625
1764842849.8314233,0,0,2,0.250
1764842849.835419,0,0,153,19.125
1764842849.839426,0,0,284,35.500
1764842849.843422,0,0,34,4.250
1764842849.8474293,0,0,-218,-27.250
1764842849.8514605,0,0,-163,-20.375
1764842849.855427,0,0,88,11.000
1764842849.8594258,0,0,297,37.125
1764842849.8634229,0,0,210,26.250
1764842849.867428,0,0,19,2.375
1764842849.871421,0,0,-8,-1.000
1764842849.8754208,0,0,145,18.125
1764842849.879491,0,0,240,30.000
1764842849.88345,0,0,-695,-86.875
1764842849.8874373,0,0,-1405,-175.625
1764842849.8914082,0,0,-1035,-129.375
1764842849.8954086,0,0,-259,-32.375
1764842849.8994267,0,0,298,37.250
1764842849.9034216,0,0,341,42.625
1764842849.9074163,0,0,126,15.750
1764842849.911407,0,0,44,5.500
1764842849.9154072,0,0,156,19.500
1764842849.919431,0,0,300,37.500
1764842849.923424,0,0,194,24.250
1764842849.9274294,0,0,-21,-2.625
1764842849.931425,0,0,-36,-4.500
1764842849.9354239,0,0,132,16.500
1764842849.939428,0,0,286,35.750
1764842849.9434268,0,0,-289,-36.125
1764842849.947428,0,0,-898,-112.250
1764842849.9514086,0,0,-715,-89.375
1764842849.9554424,0,0,-157,-19.625
1764842849.9594285,0,0,289,36.125
1764842849.9634223,0,0,465,58.125
1764842849.9674191,0,0,244,30.500
1764842849.9714081,0,0,244,30.500
1764842849.9754062,0,0,311,38.875
1764842849.9796536,0,0,87,10.875
1764842849.9836564,0,0,-249,-31.125
1764842849.9874537,0,0,-228,-28.500
1764842849.9914205,0,0,36,4.500
1764842849.9954202,0,0,293,36.625
1764842849.9994233,0,0,377,47.125
1764842850.0034204,0,0,257,32.125
1764842850.0074258,0,0,157,19.625
1764842850.0114274,0,0,194,24.250
1764842850.0154176,0,0,294,36.750
1764842850.0194273,0,0,64,8.000
1764842850.023424,0,0,-341,-42.625
1764842850.027429,0,0,-320,-40.000
1764842850.0314202,0,0,-21,-2.625
1764842850.0354207,0,0,262,32.750
1764842850.0394173,0,0,-129,-16.125
1764842850.0434098,0,0,-811,-101.375
1764842850.0474255,0,0,-731,-91.375
1764842850.051422,0,0,-222,-27.750
1764842850.055464,0,0,238,29.750
1764842850.059426,0,0,335,41.875
1764842850.0634224,0,0,130,16.250
1764842850.0674284,0,0,32,4.000
1764842850.0714214,0,0,124,15.500
1764842850.0754185,0,0,281,35.125
1764842850.08456,0,0,-461,-57.625
1764842850.0874536,0,0,-453,-56.625
1764842850.091426,0,0,-99,-12.375
1764842850.0954192,0,0,253,31.625
1764842850.0994163,0,0,334,41.750
1764842850.1034067,0,0,134,16.750
1764842850.1074235,0,0,41,5.125
1764842850.111421,0,0,123,15.375
1764842850.1154218,0,0,280,35.000
1764842850.11941,0,0,-16,-2.000
1764842850.1234045,0,0,-702,-87.750
1764842850.1274285,0,0,-693,-86.625
1764842850.131424,0,0,-236,-29.500
1764842850.13542,0,0,221,27.625
1764842850.1394205,0,0,361,45.125
1764842850.1434171,0,0,157,19.625
1764842850.1474266,0,0,48,6.000
1764842850.151419,0,0,122,15.250
1764842850.1554546,0,0,280,35.000
1764842850.159423,0,0,241,30.125
1764842850.1634173,0,0,-75,-9.375
1764842850.1674235,0,0,-146,-18.250
1764842850.1714187,0,0,25,3.125
1764842850.1754196,0,0,258,32.250
1764842850.1794243,0,0,50,6.250
1764842850.1834183,0,0,-690,-86.250
1764842850.1874228,0,0,-740,-92.500
1764842850.1914196,0,0,-292,-36.500
1764842850.195421,0,0,191,23.875
1764842850.1994243,0,0,387,48.375
1764842850.2034156,0,0,220,27.500
1764842850.2074234,0,0,91,11.375
1764842850.21142,0,0,126,15.750
1764842850.2154186,0,0,274,34.250
1764842850.219421,0,0,90,11.250
1764842850.2234173,0,0,-632,-79.000
1764842850.227424,0,0,-707,-88.375
1764842850.231417,0,0,-287,-35.875
1764842850.2354174,0,0,187,23.375
1764842850.2394226,0,0,263,32.875
1764842850.243419,0,0,-231,-28.875
1764842850.2474253,0,0,-366,-45.750
1764842850.2514133,0,0,-126,-15.750
1764842850.255418,0,0,218,27.250
1764842850.2594614,0,0,303,37.875
1764842850.2634275,0,0,-82,-10.250
1764842850.26742,0,0,-215,-26.875
1764842850.2714002,0,0,-45,-5.625
1764842850.2753975,0,0,234,29.250
1764842850.2794218,0,0,446,55.750
1764842850.2834857,0,0,501,62.625
1764842850.2874353,0,0,392,49.000
1764842850.2914052,0,0,294,36.750
1764842850.2954006,0,0,314,39.250
1764842850.2994199,0,0,291,36.375
1764842850.30342,0,0,-5,-0.625
1764842850.3074176,0,0,-113,-14.125
1764842850.3114002,0,0,6,0.750
1764842850.315396,0,0,233,29.125
1764842850.3194225,0,0,222,27.750
1764842850.323421,0,0,-396,-49.500
1764842850.3274217,0,0,-575,-71.875
1764842850.331402,0,0,-269,-33.625
1764842850.3353996,0,0,152,19.000
1764842850.3394217,0,0,425,53.125
1764842850.343421,0,0,474,59.250
1764842850.3474126,0,0,359,44.875
1764842850.3514023,0,0,258,32.250
1764842850.3553994,0,0,291,36.375
1764842850.3594534,0,0,292,36.500
1764842850.3634229,0,0,-46,-5.750
1764842850.3674262,0,0,-199,-24.875
1764842850.3714192,0,0,-71,-8.875
1764842850.3754146,0,0,191,23.875
1764842850.3794227,0,0,209,26.125
1764842850.383421,0,0,-576,-72.000
1764842850.3874183,0,0,-850,-106.250
1764842850.3914032,0,0,-477,-59.625
1764842850.395398,0,0,68,8.500
1764842850.399418,0,0,252,31.500
1764842850.4034178,0,0,-490,-61.250
1764842850.4074202,0,0,-801,-100.125
1764842850.4114,0,0,-462,-57.750
1764842850.4154007,0,0,70,8.750
1764842850.4194179,0,0,398,49.750
1764842850.4234166,0,0,370,46.250
1764842850.4274232,0,0,227,28.375
1764842850.431418,0,0,172,21.500
1764842850.4354134,0,0,266,33.250
1764842850.4394183,0,0,344,43.000
1764842850.4434144,0,0,123,15.375
1764842850.44742,0,0,-43,-5.375
1764842850.4514146,0,0,13,1.625
1764842850.4554162,0,0,216,27.000
1764842850.4594529,0,0,353,44.125
1764842850.4634154,0,0,195,24.375
1764842850.467416,0,0,41,5.125
1764842850.4714143,0,0,58,7.250
1764842850.4754148,0,0,218,27.250
1764842850.47942,0,0,346,43.250
1764842850.4834828,0,0,211,26.375
1764842850.487436,0,0,53,6.625
1764842850.491406,0,0,54,6.750
1764842850.4954007,0,0,212,26.500
1764842850.499418,0,0,309,38.625
1764842850.5034156,0,0,-122,-15.250
1764842850.5074108,0,0,-403,-50.375
1764842850.511402,0,0,-252,-31.500
1764842850.5153995,0,0,100,12.500
1764842850.519423,0,0,274,34.250
1764842850.523419,0,0,-452,-56.500
1764842850.527425,0,0,-912,-114.000
1764842850.531417,0,0,-622,-77.750
1764842850.5354166,0,0,-50,-6.250
1764842850.5394099,0,0,308,38.500
1764842850.5434005,0,0,-111,-13.875
1764842850.547415,0,0,-479,-59.875
1764842850.551415,0,0,-332,-41.500
1764842850.5554159,0,0,64,8.000
1764842850.5594563,0,0,312,39.000
1764842850.5634184,0,0,-240,-30.000
1764842850.5674245,0,0,-677,-84.625
1764842850.5714166,0,0,-471,-58.875
1764842850.5754144,0,0,13,1.625
1764842850.5794194,0,0,302,37.750
1764842850.5834165,0,0,101,12.625
1764842850.5874166,0,0,65,8.125
1764842850.5913966,0,0,209,26.125
1764842850.5954106,0,0,357,44.625
1764842850.5994117,0,0,255,31.875
1764842850.6034012,0,0,65,8.125
1764842850.6074142,0,0,51,6.375
1764842850.6114159,0,0,203,25.375
1764842850.6154149,0,0,347,43.375
1764842850.6194036,0,0,109,13.625
1764842850.6234014,0,0,-186,-23.250
1764842850.6274219,0,0,-147,-18.375
1764842850.6314163,0,0,119,14.875
1764842850.635411,0,0,359,44.875
1764842850.6394176,0,0,520,65.000
1764842850.6434157,0,0,482,60.250
1764842850.6474192,0,0,342,42.750
1764842850.6514146,0,0,310,38.750
1764842850.6554115,0,0,347,43.375
1764842850.6594164,0,0,262,32.750
1764842850.6634147,0,0,92,11.500
1764842850.667416,0,0,54,6.750
1764842850.6714149,0,0,177,22.125
1764842850.675416,0,0,307,38.375
1764842850.6794147,0,0,-234,-29.250
1764842850.6834846,0,0,-829,-103.625
1764842850.6874356,0,0,-667,-83.375
1764842850.6914036,0,0,-138,-17.250
1764842850.6953995,0,0,282,35.250
1764842850.6994147,0,0,45,5.625
1764842850.7034128,0,0,-409,-51.125
1764842850.707414,0,0,-366,-45.750
1764842850.711398,0,0,-17,-2.125
1764842850.715396,0,0,300,37.500
1764842850.719417,0,0,162,20.250
1764842850.7234154,0,0,-195,-24.375
1764842850.7274213,0,0,-201,-25.125
1764842850.7314162,0,0,58,7.250
1764842850.7354136,0,0,312,39.000
1764842850.7394195,0,0,144,18.000
1764842850.7434123,0,0,-238,-29.750
1764842850.7474163,0,0,-240,-30.000
1764842850.7514143,0,0,32,4.000
1764842850.7554145,0,0,307,38.375
1764842850.759419,0,0,465,58.125
1764842850.7634504,0,0,423,52.875
1764842850.76742,0,0,301,37.625
1764842850.771432,0,0,272,34.000
1764842850.7754245,0,0,331,41.375
1764842850.77941,0,0,280,35.000
1764842850.7833946,0,0,77,9.625
1764842850.787399,0,0,22,2.750
1764842850.7913945,0,0,141,17.625
1764842850.7953992,0,0,303,37.875
1764842850.7993982,0,0,195,24.375
1764842850.8033967,0,0,-148,-18.500
1764842850.8074148,0,0,-187,-23.375
1764842850.8114119,0,0,23,2.875
1764842850.8154125,0,0,272,34.000
1764842850.8194191,0,0,180,22.500
1764842850.8234143,0,0,-209,-26.125
1764842850.827414,0,0,-251,-31.375
1764842850.831409,0,0,-16,-2.000
1764842850.8354092,0,0,256,32.000
1764842850.8393996,0,0,98,12.250
1764842850.843394,0,0,-414,-51.750
1764842850.8474152,0,0,-436,-54.500
1764842850.8514132,0,0,-107,-13.375
1764842850.8554075,0,0,244,30.500
1764842850.859413,0,0,238,29.750
1764842850.8634486,0,0,-132,-16.500
1764842850.8674192,0,0,-207,-25.875
1764842850.8714094,0,0,-4,-0.500
1764842850.875412,0,0,262,32.750
1764842850.8794143,0,0,352,44.000
1764842850.8834865,0,0,179,22.375
1764842850.8874335,0,0,77,9.625
1764842850.8913965,0,0,136,17.000
1764842850.8953927,0,0,282,35.250
1764842850.8994088,0,0,379,47.375
1764842850.9034104,0,0,305,38.125
1764842850.9074118,0,0,206,25.750
1764842850.911394,0,0,198,24.750
1764842850.9153914,0,0,285,35.625
1764842850.9194124,0,0,440,55.000
1764842850.9234138,0,0,531,66.375
1764842850.927421,0,0,422,52.750
1764842850.9314113,0,0,304,38.000
1764842850.9354117,0,0,302,37.750
1764842850.9394145,0,0,132,16.500
1764842850.9434118,0,0,-399,-49.875
1764842850.9474187,0,0,-475,-59.375
1764842850.9514117,0,0,-177,-22.125
1764842850.9554107,0,0,186,23.250
1764842850.959414,0,0,348,43.500
1764842850.9634452,0,0,193,24.125
1764842850.9674206,0,0,68,8.500
1764842850.971412,0,0,94,11.750
1764842850.9754157,0,0,236,29.500
1764842850.9796472,0,0,82,10.250
1764842850.983642,0,0,-664,-83.000
1764842850.9874449,0,0,-779,-97.375
1764842850.9914136,0,0,-362,-45.250
