Timestamp,LO_plus,LO_minus,Raw_ADC,Voltage_mV
0.010994434356689453,0,0,25669,1604.312
0.012212276458740234,0,0,25669,1604.312
0.013344764709472656,0,0,25644,1602.750
0.017192363739013672,0,0,25618,1601.125
0.021178722381591797,0,0,25596,1599.750
0.02517414093017578,0,0,25579,1598.688
0.029254436492919922,0,0,25568,1598.000
0.033173322677612305,0,0,25554,1597.125
0.03717207908630371,0,0,25536,1596.000
0.04117393493652344,0,0,25521,1595.062
0.045172929763793945,0,0,25511,1594.438
0.049173831939697266,0,0,25506,1594.125
0.053171396255493164,0,0,25497,1593.562
0.057172298431396484,0,0,25485,1592.812
0.0611729621887207,0,0,25474,1592.125
0.0651710033416748,0,0,25468,1591.750
0.06918072700500488,0,0,25465,1591.562
0.07317876815795898,0,0,25461,1591.312
0.07717776298522949,0,0,25452,1590.750
0.08118176460266113,0,0,25443,1590.188
0.08517932891845703,0,0,25439,1589.938
0.08918190002441406,0,0,25439,1589.938
0.09317755699157715,0,0,25435,1589.688
0.09717917442321777,0,0,25428,1589.250
0.10118436813354492,0,0,25420,1588.750
0.10518074035644531,0,0,25417,1588.562
0.10918045043945312,0,0,25419,1588.688
0.11317920684814453,0,0,25417,1588.562
0.11717772483825684,0,0,25411,1588.188
0.12118005752563477,0,0,25404,1587.750
0.12517833709716797,0,0,25402,1587.625
0.1291799545288086,0,0,25403,1587.688
0.1331772804260254,0,0,25402,1587.625
0.1371762752532959,0,0,25397,1587.312
0.14118218421936035,0,0,25391,1586.938
0.14517831802368164,0,0,25389,1586.812
0.14917969703674316,0,0,25391,1586.938
0.15317869186401367,0,0,25390,1586.875
0.15717554092407227,0,0,25386,1586.625
0.16118121147155762,0,0,25379,1586.188
0.165177583694458,0,0,25378,1586.125
0.16917872428894043,0,0,25380,1586.250
0.17317676544189453,0,0,25380,1586.250
0.17717719078063965,0,0,25376,1586.000
0.1811814308166504,0,0,25369,1585.562
0.18517732620239258,0,0,25368,1585.500
0.18917393684387207,0,0,25370,1585.625
0.19317054748535156,0,0,25370,1585.625
0.19717001914978027,0,0,25366,1585.375
0.20117783546447754,0,0,25360,1585.000
0.2053215503692627,0,0,25358,1584.875
0.2092149257659912,0,0,25362,1585.125
0.21317362785339355,0,0,25362,1585.125
0.21717095375061035,0,0,25358,1584.875
0.22118091583251953,0,0,25352,1584.500
0.22517895698547363,0,0,25350,1584.375
0.22917461395263672,0,0,25353,1584.562
0.23318982124328613,0,0,25354,1584.625
0.23717021942138672,0,0,25350,1584.375
0.2411816120147705,0,0,25344,1584.000
0.24517822265625,0,0,25342,1583.875
0.2491745948791504,0,0,25345,1584.062
0.25316905975341797,0,0,25346,1584.125
0.2571694850921631,0,0,25343,1583.938
0.2611839771270752,0,0,25337,1583.562
0.2651803493499756,0,0,25335,1583.438
0.26917409896850586,0,0,25338,1583.625
0.27316904067993164,0,0,25340,1583.750
0.27716946601867676,0,0,25336,1583.500
0.28117895126342773,0,0,25330,1583.125
0.28517627716064453,0,0,25329,1583.062
0.28917455673217773,0,0,25331,1583.188
0.2931694984436035,0,0,25332,1583.250
0.2971680164337158,0,0,25329,1583.062
0.3011801242828369,0,0,25323,1582.688
0.3051764965057373,0,0,25321,1582.562
0.3091771602630615,0,0,25324,1582.750
0.31317615509033203,0,0,25325,1582.812
0.31717562675476074,0,0,25323,1582.688
0.3211789131164551,0,0,25317,1582.312
0.3251760005950928,0,0,25315,1582.188
0.329176664352417,0,0,25317,1582.312
0.3331747055053711,0,0,25319,1582.438
0.3371763229370117,0,0,25317,1582.312
0.34117913246154785,0,0,25310,1581.875
0.34517836570739746,0,0,25309,1581.812
0.3491790294647217,0,0,25311,1581.938
0.35318660736083984,0,0,25313,1582.062
0.35722780227661133,0,0,25311,1581.938
0.3611881732940674,0,0,25306,1581.625
0.3651754856109619,0,0,25303,1581.438
0.3691747188568115,0,0,25305,1581.562
0.37317347526550293,0,0,25308,1581.750
0.3771836757659912,0,0,25305,1581.562
0.381178617477417,0,0,25300,1581.250
0.38517332077026367,0,0,25297,1581.062
0.389174222946167,0,0,25299,1581.188
0.3931736946105957,0,0,25302,1581.375
0.3971731662750244,0,0,25300,1581.250
0.40117454528808594,0,0,25295,1580.938
0.40517473220825195,0,0,25292,1580.750
0.40917158126831055,0,0,25294,1580.875
0.41316652297973633,0,0,25297,1581.062
0.417163610458374,0,0,25295,1580.938
0.42117905616760254,0,0,25289,1580.562
0.4251744747161865,0,0,25287,1580.438
0.42917704582214355,0,0,25289,1580.562
0.43317341804504395,0,0,25291,1580.688
0.43717479705810547,0,0,25290,1580.625
0.44117212295532227,0,0,25285,1580.312
0.44516563415527344,0,0,25282,1580.125
0.4491763114929199,0,0,25284,1580.250
0.4531738758087158,0,0,25287,1580.438
0.4571726322174072,0,0,25286,1580.375
0.4611785411834717,0,0,25280,1580.000
0.4651753902435303,0,0,25277,1579.812
0.4691765308380127,0,0,25279,1579.938
0.4731731414794922,0,0,25282,1580.125
0.4771728515625,0,0,25281,1580.062
0.48117589950561523,0,0,25276,1579.750
0.48517537117004395,0,0,25273,1579.562
0.489185094833374,0,0,25274,1579.625
0.4933454990386963,0,0,25278,1579.875
0.49724674224853516,0,0,25277,1579.812
0.501253604888916,0,0,25271,1579.438
0.5052347183227539,0,0,25269,1579.312
0.5092422962188721,0,0,25269,1579.312
0.5132427215576172,0,0,25273,1579.562
0.5172510147094727,0,0,25272,1579.500
0.5212481021881104,0,0,25267,1579.188
0.5252416133880615,0,0,25265,1579.062
0.5292434692382812,0,0,25266,1579.125
0.5332496166229248,0,0,25270,1579.375
0.537240743637085,0,0,25269,1579.312
0.5412468910217285,0,0,25264,1579.000
0.5452406406402588,0,0,25261,1578.812
0.5492541790008545,0,0,25262,1578.875
0.5532398223876953,0,0,25266,1579.125
0.5572388172149658,0,0,25265,1579.062
0.5612454414367676,0,0,25260,1578.750
0.5652501583099365,0,0,25257,1578.562
0.5692439079284668,0,0,25258,1578.625
0.5732400417327881,0,0,25261,1578.812
0.577239990234375,0,0,25261,1578.812
0.581256628036499,0,0,25256,1578.500
0.5852410793304443,0,0,25253,1578.312
0.5892441272735596,0,0,25253,1578.312
0.593346357345581,0,0,25258,1578.625
0.5973160266876221,0,0,25258,1578.625
0.6013081073760986,0,0,25249,1578.062
0.6052956581115723,0,0,25250,1578.125
0.60931396484375,0,0,25254,1578.375
0.613325834274292,0,0,25254,1578.375
0.6173079013824463,0,0,25250,1578.125
0.6213183403015137,0,0,25246,1577.875
0.6253087520599365,0,0,25247,1577.938
0.6294291019439697,0,0,25251,1578.188
0.6336593627929688,0,0,25251,1578.188
0.6374025344848633,0,0,25247,1577.938
0.6413242816925049,0,0,25243,1577.688
0.6453249454498291,0,0,25244,1577.750
0.6493120193481445,0,0,25248,1578.000
0.6533064842224121,0,0,25248,1578.000
0.6573066711425781,0,0,25244,1577.750
0.6613271236419678,0,0,25240,1577.500
0.6653096675872803,0,0,25240,1577.500
0.6693098545074463,0,0,25244,1577.750
0.6733083724975586,0,0,25245,1577.812
0.6773207187652588,0,0,25241,1577.562
0.681312084197998,0,0,25237,1577.312
0.6853113174438477,0,0,25237,1577.312
0.6893014907836914,0,0,25241,1577.562
0.6934096813201904,0,0,25242,1577.625
0.6972596645355225,0,0,25238,1577.375
0.701287031173706,0,0,25234,1577.125
0.705268144607544,0,0,25235,1577.188
0.7092669010162354,0,0,25238,1577.375
0.7132649421691895,0,0,25239,1577.438
0.7172751426696777,0,0,25236,1577.250
0.7212696075439453,0,0,25232,1577.000
0.7252664566040039,0,0,25231,1576.938
0.7292678356170654,0,0,25236,1577.250
0.7332782745361328,0,0,25237,1577.312
0.737267017364502,0,0,25233,1577.062
0.741295337677002,0,0,25229,1576.812
0.7452678680419922,0,0,25228,1576.750
0.7492818832397461,0,0,25233,1577.062
0.7532670497894287,0,0,25234,1577.125
0.7572674751281738,0,0,25231,1576.938
0.7612693309783936,0,0,25226,1576.625
0.7652773857116699,0,0,25226,1576.625
0.7692692279815674,0,0,25230,1576.875
0.7732653617858887,0,0,25232,1577.000
0.7772653102874756,0,0,25229,1576.812
0.7812845706939697,0,0,25224,1576.500
0.785269021987915,0,0,25224,1576.500
0.7892684936523438,0,0,25228,1576.750
0.793353796005249,0,0,25229,1576.812
0.7973110675811768,0,0,25226,1576.625
0.80130934715271,0,0,25221,1576.312
0.8053059577941895,0,0,25221,1576.312
0.8093087673187256,0,0,25225,1576.562
0.813305139541626,0,0,25226,1576.625
0.8173038959503174,0,0,25224,1576.500
0.8213100433349609,0,0,25219,1576.188
0.8253071308135986,0,0,25219,1576.188
0.8293085098266602,0,0,25222,1576.375
0.8333046436309814,0,0,25225,1576.562
0.837303876876831,0,0,25223,1576.438
0.8413088321685791,0,0,25217,1576.062
0.8453071117401123,0,0,25217,1576.062
0.8493087291717529,0,0,25220,1576.250
0.853304386138916,0,0,25223,1576.438
0.8573040962219238,0,0,25220,1576.250
0.8613040447235107,0,0,25215,1575.938
0.8653054237365723,0,0,25215,1575.938
0.8693091869354248,0,0,25218,1576.125
0.873302698135376,0,0,25221,1576.312
0.8773038387298584,0,0,25219,1576.188
0.881303071975708,0,0,25213,1575.812
0.8853065967559814,0,0,25213,1575.812
0.889307975769043,0,0,25216,1576.000
0.8933825492858887,0,0,25218,1576.125
0.897268533706665,0,0,25217,1576.062
0.9012715816497803,0,0,25212,1575.750
0.9052653312683105,0,0,25211,1575.688
0.9092695713043213,0,0,25215,1575.938
0.9132647514343262,0,0,25217,1576.062
0.9172680377960205,0,0,25215,1575.938
0.9212667942047119,0,0,25210,1575.625
0.925264835357666,0,0,25209,1575.562
0.929267406463623,0,0,25212,1575.750
0.9332664012908936,0,0,25215,1575.938
0.9372642040252686,0,0,25214,1575.875
0.9412612915039062,0,0,25208,1575.500
0.9452533721923828,0,0,25207,1575.438
0.9492647647857666,0,0,25210,1575.625
0.9532639980316162,0,0,25213,1575.812
0.9572634696960449,0,0,25212,1575.750
0.9612648487091064,0,0,25207,1575.438
0.9652647972106934,0,0,25206,1575.375
0.9692704677581787,0,0,25209,1575.562
0.9732646942138672,0,0,25212,1575.750
0.9772641658782959,0,0,25210,1575.625
0.9812653064727783,0,0,25206,1575.375
0.9852635860443115,0,0,25204,1575.250
0.9892685413360596,0,0,25207,1575.438
0.9933571815490723,0,0,25210,1575.625
0.9973292350769043,0,0,25209,1575.562
1.0013086795806885,0,0,25204,1575.250
1.0123913288116455,0,0,25209,1575.562
1.0136988162994385,0,0,25209,1575.562
1.0173029899597168,0,0,25207,1575.438
1.0212945938110352,0,0,25202,1575.125
1.0252890586853027,0,0,25201,1575.062
1.029287338256836,0,0,25203,1575.188
1.0332865715026855,0,0,25207,1575.438
1.0372874736785889,0,0,25207,1575.438
1.0412888526916504,0,0,25201,1575.062
1.0452876091003418,0,0,25199,1574.938
1.049302339553833,0,0,25201,1575.062
1.0533032417297363,0,0,25205,1575.312
1.057297706604004,0,0,25205,1575.312
1.0613079071044922,0,0,25200,1575.000
1.0653026103973389,0,0,25198,1574.875
1.0693068504333496,0,0,25200,1575.000
1.0733013153076172,0,0,25204,1575.250
1.077301025390625,0,0,25204,1575.250
1.081296443939209,0,0,25199,1574.938
1.0852899551391602,0,0,25197,1574.812
1.0893058776855469,0,0,25199,1574.938
1.0934016704559326,0,0,25203,1575.188
1.097269058227539,0,0,25203,1575.188
1.1012682914733887,0,0,25198,1574.875
1.1052629947662354,0,0,25196,1574.750
1.109266757965088,0,0,25198,1574.875
1.11326265335083,0,0,25202,1575.125
1.117264986038208,0,0,25202,1575.125
1.1212668418884277,0,0,25197,1574.812
1.1252622604370117,0,0,25195,1574.688
1.1292665004730225,0,0,25196,1574.750
1.133263349533081,0,0,25200,1575.000
1.1372621059417725,0,0,25200,1575.000
1.141268253326416,0,0,25197,1574.812
1.145265817642212,0,0,25193,1574.562
1.1492674350738525,0,0,25194,1574.625
1.153261661529541,0,0,25199,1574.938
1.1572620868682861,0,0,25199,1574.938
1.1612651348114014,0,0,25195,1574.688
1.1652617454528809,0,0,25192,1574.500
1.1692655086517334,0,0,25194,1574.625
1.173262119293213,0,0,25198,1574.875
1.1772611141204834,0,0,25199,1574.938
1.1812677383422852,0,0,25194,1574.625
1.1852612495422363,0,0,25191,1574.438
1.189258337020874,0,0,25193,1574.562
1.1933400630950928,0,0,25197,1574.812
1.1972906589508057,0,0,25193,1574.562
1.2013037204742432,0,0,25190,1574.375
1.2053003311157227,0,0,25191,1574.438
1.209294319152832,0,0,25196,1574.750
1.2132892608642578,0,0,25196,1574.750
1.2172858715057373,0,0,25193,1574.562
1.2213034629821777,0,0,25189,1574.312
1.2253007888793945,0,0,25190,1574.375
1.2293040752410889,0,0,25195,1574.688
1.2332994937896729,0,0,25195,1574.688
1.2373018264770508,0,0,25192,1574.500
1.2413060665130615,0,0,25189,1574.312
1.2452988624572754,0,0,25189,1574.312
1.2493059635162354,0,0,25194,1574.625
1.2533023357391357,0,0,25194,1574.625
1.2572987079620361,0,0,25191,1574.438
1.261305809020996,0,0,25188,1574.250
1.2652997970581055,0,0,25188,1574.250
1.2693040370941162,0,0,25193,1574.562
1.2732973098754883,0,0,25194,1574.625
1.2772982120513916,0,0,25190,1574.375
1.2813026905059814,0,0,25187,1574.188
1.285299301147461,0,0,25187,1574.188
1.2892999649047852,0,0,25192,1574.500
1.2933754920959473,0,0,25193,1574.562
1.2972660064697266,0,0,25190,1574.375
1.301267147064209,0,0,25186,1574.125
1.3052611351013184,0,0,25186,1574.125
1.3092641830444336,0,0,25191,1574.438
1.3132598400115967,0,0,25192,1574.500
1.317260980606079,0,0,25189,1574.312
1.3212623596191406,0,0,25185,1574.062
1.3252592086791992,0,0,25185,1574.062
1.3292639255523682,0,0,25189,1574.312
1.3332600593566895,0,0,25192,1574.500
1.3372576236724854,0,0,25188,1574.250
1.3412656784057617,0,0,25184,1574.000
1.345259428024292,0,0,25184,1574.000
1.3492662906646729,0,0,25189,1574.312
1.3532612323760986,0,0,25190,1574.375
1.357264757156372,0,0,25188,1574.250
1.36126708984375,0,0,25184,1574.000
1.365260124206543,0,0,25184,1574.000
1.3692641258239746,0,0,25188,1574.250
1.373260498046875,0,0,25189,1574.312
1.3772590160369873,0,0,25188,1574.250
1.3812665939331055,0,0,25183,1573.938
1.385258436203003,0,0,25183,1573.938
1.3892643451690674,0,0,25187,1574.188
1.3933522701263428,0,0,25189,1574.312
1.397301197052002,0,0,25187,1574.188
1.4013066291809082,0,0,25182,1573.875
1.4053003787994385,0,0,25181,1573.812
1.4093036651611328,0,0,25186,1574.125
1.413297414779663,0,0,25188,1574.250
1.4172961711883545,0,0,25186,1574.125
1.4213030338287354,0,0,25181,1573.812
1.4252986907958984,0,0,25181,1573.812
1.4293022155761719,0,0,25185,1574.062
1.4333000183105469,0,0,25187,1574.188
1.43729829788208,0,0,25186,1574.125
1.4412925243377686,0,0,25181,1573.812
1.4452836513519287,0,0,25181,1573.812
1.4492995738983154,0,0,25184,1574.000
1.4532992839813232,0,0,25187,1574.188
1.4572968482971191,0,0,25185,1574.062
1.461294174194336,0,0,25180,1573.750
1.4652926921844482,0,0,25180,1573.750
1.4692976474761963,0,0,25184,1574.000
1.4732978343963623,0,0,25186,1574.125
1.477297306060791,0,0,25185,1574.062
1.4813013076782227,0,0,25180,1573.750
1.485295057296753,0,0,25180,1573.750
1.489300012588501,0,0,25183,1573.938
1.4933006763458252,0,0,25185,1574.062
1.4972612857818604,0,0,25184,1574.000
1.5012598037719727,0,0,25180,1573.750
1.5052595138549805,0,0,25179,1573.688
1.5092620849609375,0,0,25182,1573.875
1.5132567882537842,0,0,25185,1574.062
1.517256736755371,0,0,25184,1574.000
1.5212557315826416,0,0,25180,1573.750
1.5252478122711182,0,0,25178,1573.625
1.5292549133300781,0,0,25181,1573.812
1.533257246017456,0,0,25184,1574.000
1.5372581481933594,0,0,25184,1574.000
1.5412638187408447,0,0,25178,1573.625
1.545255422592163,0,0,25178,1573.625
1.549259901046753,0,0,25181,1573.812
1.5532546043395996,0,0,25184,1574.000
1.557257890701294,0,0,25184,1574.000
1.5612525939941406,0,0,25178,1573.625
1.5652449131011963,0,0,25177,1573.562
1.5692567825317383,0,0,25180,1573.750
1.573256254196167,0,0,25184,1574.000
1.577256202697754,0,0,25183,1573.938
1.5812616348266602,0,0,25178,1573.625
1.5852558612823486,0,0,25176,1573.500
1.5892577171325684,0,0,25180,1573.750
1.5933351516723633,0,0,25183,1573.938
1.597296953201294,0,0,25182,1573.875
1.6013000011444092,0,0,25178,1573.625
1.6052958965301514,0,0,25176,1573.500
1.609299659729004,0,0,25179,1573.688
1.613295316696167,0,0,25182,1573.875
1.617293119430542,0,0,25182,1573.875
1.621300458908081,0,0,25177,1573.562
1.6252930164337158,0,0,25175,1573.438
1.6293926239013672,0,0,25178,1573.625
1.6336419582366943,0,0,25182,1573.875
1.6373803615570068,0,0,25182,1573.875
1.6413023471832275,0,0,25177,1573.562
1.6452836990356445,0,0,25175,1573.438
1.6493053436279297,0,0,25177,1573.562
1.6532928943634033,0,0,25181,1573.812
1.657289743423462,0,0,25181,1573.812
1.66129469871521,0,0,25177,1573.562
1.665292739868164,0,0,25175,1573.438
1.6692938804626465,0,0,25177,1573.562
1.6732943058013916,0,0,25181,1573.812
1.6772942543029785,0,0,25182,1573.875
1.68129563331604,0,0,25176,1573.500
1.6852927207946777,0,0,25174,1573.375
1.6892874240875244,0,0,25177,1573.562
1.6933884620666504,0,0,25181,1573.812
1.6972496509552002,0,0,25181,1573.812
1.7012603282928467,0,0,25177,1573.562
1.7052569389343262,0,0,25174,1573.375
1.7092561721801758,0,0,25175,1573.438
1.7132549285888672,0,0,25180,1573.750
1.7172706127166748,0,0,25180,1573.750
1.7212581634521484,0,0,25176,1573.500
1.7252464294433594,0,0,25173,1573.312
1.729254961013794,0,0,25175,1573.438
1.7332549095153809,0,0,25180,1573.750
1.7372536659240723,0,0,25180,1573.750
1.7412469387054443,0,0,25176,1573.500
1.7452466487884521,0,0,25173,1573.312
1.749258279800415,0,0,25175,1573.438
1.7532556056976318,0,0,25180,1573.750
1.7572543621063232,0,0,25180,1573.750
1.7612583637237549,0,0,25176,1573.500
1.7652583122253418,0,0,25173,1573.312
1.7692599296569824,0,0,25174,1573.375
1.7732555866241455,0,0,25179,1573.688
1.7772548198699951,0,0,25179,1573.688
1.7812623977661133,0,0,25176,1573.500
1.7852585315704346,0,0,25172,1573.250
1.7893579006195068,0,0,25178,1573.625
1.793595314025879,0,0,25179,1573.688
1.7973477840423584,0,0,25176,1573.500
1.801302433013916,0,0,25173,1573.312
1.8052868843078613,0,0,25174,1573.375
1.809293508529663,0,0,25178,1573.625
1.8132915496826172,0,0,25178,1573.625
1.8173003196716309,0,0,25175,1573.438
1.8212978839874268,0,0,25172,1573.250
1.825354814529419,0,0,25173,1573.312
1.829305648803711,0,0,25177,1573.562
1.8332891464233398,0,0,25179,1573.688
1.8372862339019775,0,0,25175,1573.438
1.8412938117980957,0,0,25172,1573.250
1.8453044891357422,0,0,25173,1573.312
1.8492958545684814,0,0,25178,1573.625
1.8532886505126953,0,0,25178,1573.625
1.8572876453399658,0,0,25176,1573.500
1.8612902164459229,0,0,25171,1573.188
1.865290641784668,0,0,25172,1573.250
1.8692922592163086,0,0,25177,1573.562
1.8732869625091553,0,0,25178,1573.625
1.877288818359375,0,0,25175,1573.438
1.8812956809997559,0,0,25171,1573.188
1.8852860927581787,0,0,25172,1573.250
1.889286756515503,0,0,25177,1573.562
1.8933532238006592,0,0,25178,1573.625
1.897244930267334,0,0,25175,1573.438
1.9012584686279297,0,0,25171,1573.188
1.905254602432251,0,0,25171,1573.188
1.9092557430267334,0,0,25176,1573.500
1.9132511615753174,0,0,25178,1573.625
1.917252540588379,0,0,25175,1573.438
1.921257495880127,0,0,25171,1573.188
1.9252500534057617,0,0,25171,1573.188
1.929255723953247,0,0,25176,1573.500
1.9332520961761475,0,0,25177,1573.562
1.9372501373291016,0,0,25175,1573.438
1.9412477016448975,0,0,25171,1573.188
1.9452366828918457,0,0,25170,1573.125
1.9492573738098145,0,0,25175,1573.438
1.9532520771026611,0,0,25177,1573.562
1.9572489261627197,0,0,25175,1573.438
1.961254358291626,0,0,25170,1573.125
1.9652490615844727,0,0,25170,1573.125
1.9692487716674805,0,0,25174,1573.375
1.9732356071472168,0,0,25177,1573.562
1.9772396087646484,0,0,25175,1573.438
1.9812555313110352,0,0,25170,1573.125
1.9852511882781982,0,0,25171,1573.188
1.989253282546997,0,0,25174,1573.375
1.993337631225586,0,0,25177,1573.562
1.997290849685669,0,0,25175,1573.438
2.001293182373047,0,0,25171,1573.188
2.005289077758789,0,0,25170,1573.125
2.0160326957702637,0,0,25175,1573.438
2.0173521041870117,0,0,25175,1573.438
2.021320343017578,0,0,25170,1573.125
2.0252904891967773,0,0,25170,1573.125
2.02929949760437,0,0,25173,1573.312
2.0332911014556885,0,0,25177,1573.562
2.0372872352600098,0,0,25174,1573.375
2.041297197341919,0,0,25171,1573.188
2.0452921390533447,0,0,25169,1573.062
2.0492939949035645,0,0,25173,1573.312
2.0532875061035156,0,0,25176,1573.500
2.0572903156280518,0,0,25174,1573.375
2.061295509338379,0,0,25170,1573.125
2.06528902053833,0,0,25169,1573.062
2.069291353225708,0,0,25173,1573.312
2.073288679122925,0,0,25176,1573.500
2.07728910446167,0,0,25174,1573.375
2.0812935829162598,0,0,25170,1573.125
2.0852861404418945,0,0,25169,1573.062
2.089291572570801,0,0,25172,1573.250
2.0933902263641357,0,0,25175,1573.438
2.0972554683685303,0,0,25175,1573.438
2.1012563705444336,0,0,25170,1573.125
2.10524845123291,0,0,25169,1573.062
2.109250783920288,0,0,25172,1573.250
2.113248586654663,0,0,25175,1573.438
2.11724853515625,0,0,25175,1573.438
2.121246099472046,0,0,25170,1573.125
2.1252334117889404,0,0,25169,1573.062
2.1292521953582764,0,0,25172,1573.250
2.133249521255493,0,0,25175,1573.438
2.1372463703155518,0,0,25174,1573.375
2.1412506103515625,0,0,25170,1573.125
2.1452488899230957,0,0,25168,1573.000
2.1492481231689453,0,0,25171,1573.188
2.153245210647583,0,0,25176,1573.500
2.1572482585906982,0,0,25174,1573.375
2.161250352859497,0,0,25169,1573.062
2.165245532989502,0,0,25168,1573.000
2.16925048828125,0,0,25171,1573.188
2.1732466220855713,0,0,25175,1573.438
2.177246570587158,0,0,25174,1573.375
2.181250810623169,0,0,25169,1573.062
2.185248374938965,0,0,25168,1573.000
2.1892426013946533,0,0,25171,1573.188
2.193324089050293,0,0,25174,1573.375
2.197274684906006,0,0,25174,1573.375
2.201287269592285,0,0,25170,1573.125
2.205284595489502,0,0,25168,1573.000
2.2092809677124023,0,0,25170,1573.125
2.2132728099823,0,0,25175,1573.438
2.2172727584838867,0,0,25174,1573.375
2.2212867736816406,0,0,25170,1573.125
2.2252867221832275,0,0,25168,1573.000
2.229292154312134,0,0,25170,1573.125
2.2332851886749268,0,0,25174,1573.375
2.237285614013672,0,0,25174,1573.375
2.2412922382354736,0,0,25169,1573.062
2.2452871799468994,0,0,25167,1572.938
2.2492899894714355,0,0,25170,1573.125
2.2532835006713867,0,0,25174,1573.375
2.2572851181030273,0,0,25174,1573.375
2.261291742324829,0,0,25170,1573.125
2.2652854919433594,0,0,25168,1573.000
2.2692878246307373,0,0,25170,1573.125
2.273284435272217,0,0,25174,1573.375
2.277285575866699,0,0,25175,1573.438
2.281292200088501,0,0,25170,1573.125
2.2852838039398193,0,0,25168,1573.000
2.289290428161621,0,0,25169,1573.062
2.2933669090270996,0,0,25174,1573.375
2.2972517013549805,0,0,25173,1573.312
2.3012540340423584,0,0,25170,1573.125
2.305245876312256,0,0,25167,1572.938
2.3092446327209473,0,0,25169,1573.062
2.313246726989746,0,0,25173,1573.312
2.317246198654175,0,0,25174,1573.375
2.321251153945923,0,0,25170,1573.125
2.325244665145874,0,0,25168,1573.000
2.329249858856201,0,0,25169,1573.062
2.333247661590576,0,0,25173,1573.312
2.3372457027435303,0,0,25173,1573.312
2.3412513732910156,0,0,25170,1573.125
2.3452465534210205,0,0,25167,1572.938
2.349250316619873,0,0,25169,1573.062
2.3532462120056152,0,0,25173,1573.312
2.357243061065674,0,0,25174,1573.375
2.361250638961792,0,0,25170,1573.125
2.365246534347534,0,0,25167,1572.938
2.369253158569336,0,0,25168,1573.000
2.3732428550720215,0,0,25174,1573.375
2.3772470951080322,0,0,25174,1573.375
2.3812625408172607,0,0,25167,1572.938
2.3852486610412598,0,0,25168,1573.000
2.3892431259155273,0,0,25173,1573.312
2.3933286666870117,0,0,25173,1573.312
2.397275686264038,0,0,25170,1573.125
2.4012868404388428,0,0,25167,1572.938
2.405367136001587,0,0,25168,1573.000
2.4092977046966553,0,0,25173,1573.312
2.4132723808288574,0,0,25173,1573.312
2.418203115463257,0,0,25170,1573.125
2.421464681625366,0,0,25167,1572.938
2.425302505493164,0,0,25167,1572.938
2.429283857345581,0,0,25172,1573.250
2.4332733154296875,0,0,25174,1573.375
2.437267780303955,0,0,25170,1573.125
2.441267728805542,0,0,25167,1572.938
2.4456002712249756,0,0,25167,1572.938
2.4493069648742676,0,0,25173,1573.312
2.453270673751831,0,0,25173,1573.312
2.4572677612304688,0,0,25170,1573.125
2.461271047592163,0,0,25167,1572.938
2.465313196182251,0,0,25168,1573.000
2.469271421432495,0,0,25172,1573.250
2.473263740539551,0,0,25173,1573.312
2.477264165878296,0,0,25171,1573.188
2.481279134750366,0,0,25167,1572.938
2.4852757453918457,0,0,25168,1573.000
2.489274263381958,0,0,25172,1573.250
2.493375778198242,0,0,25173,1573.312
2.4972405433654785,0,0,25171,1573.188
2.5012431144714355,0,0,25167,1572.938
2.5052406787872314,0,0,25167,1572.938
2.5092411041259766,0,0,25172,1573.250
2.513237714767456,0,0,25173,1573.312
2.5172348022460938,0,0,25171,1573.188
2.5212342739105225,0,0,25167,1572.938
2.525226593017578,0,0,25168,1573.000
2.529297113418579,0,0,25171,1573.188
2.5333194732666016,0,0,25173,1573.312
2.537245750427246,0,0,25171,1573.188
2.541247844696045,0,0,25167,1572.938
2.5452394485473633,0,0,25167,1572.938
2.5492377281188965,0,0,25171,1573.188
2.5532333850860596,0,0,25173,1573.312
2.5572328567504883,0,0,25171,1573.188
2.561239719390869,0,0,25167,1572.938
2.5652377605438232,0,0,25167,1572.938
2.569239854812622,0,0,25171,1573.188
2.573253631591797,0,0,25173,1573.312
2.5772392749786377,0,0,25171,1573.188
2.581242084503174,0,0,25167,1572.938
2.5852365493774414,0,0,25166,1572.875
2.589238166809082,0,0,25171,1573.188
2.5933408737182617,0,0,25173,1573.312
2.5972771644592285,0,0,25172,1573.250
2.6012797355651855,0,0,25166,1572.875
2.605273723602295,0,0,25166,1572.875
2.6092748641967773,0,0,25170,1573.125
2.6132705211639404,0,0,25173,1573.312
2.617269515991211,0,0,25172,1573.250
2.6213252544403076,0,0,25166,1572.875
2.625272512435913,0,0,25166,1572.875
2.6293506622314453,0,0,25170,1573.125
2.633615255355835,0,0,25173,1573.312
2.6373870372772217,0,0,25171,1573.188
2.641292095184326,0,0,25167,1572.938
2.645277738571167,0,0,25167,1572.938
2.649273157119751,0,0,25170,1573.125
2.6532697677612305,0,0,25172,1573.250
2.657271146774292,0,0,25172,1573.250
2.661324977874756,0,0,25166,1572.875
2.6652743816375732,0,0,25166,1572.875
2.6692731380462646,0,0,25169,1573.062
2.673269748687744,0,0,25173,1573.312
2.677266836166382,0,0,25171,1573.188
2.6813201904296875,0,0,25166,1572.875
2.6852684020996094,0,0,25165,1572.812
2.6892733573913574,0,0,25169,1573.062
2.6933772563934326,0,0,25172,1573.250
2.6972358226776123,0,0,25171,1573.188
2.7012345790863037,0,0,25167,1572.938
2.705235481262207,0,0,25166,1572.875
2.7092325687408447,0,0,25169,1573.062
2.7132301330566406,0,0,25173,1573.312
2.7172298431396484,0,0,25171,1573.188
2.7212419509887695,0,0,25167,1572.938
2.7252376079559326,0,0,25165,1572.812
2.729234218597412,0,0,25168,1573.000
2.733227252960205,0,0,25172,1573.250
2.7372329235076904,0,0,25171,1573.188
2.7412378787994385,0,0,25166,1572.875
2.74523663520813,0,0,25166,1572.875
2.7492332458496094,0,0,25168,1573.000
2.7532310485839844,0,0,25172,1573.250
2.757232189178467,0,0,25172,1573.250
2.7612342834472656,0,0,25167,1572.938
2.765235185623169,0,0,25165,1572.812
2.7692344188690186,0,0,25168,1573.000
2.7732324600219727,0,0,25172,1573.250
2.7772297859191895,0,0,25171,1573.188
2.781236410140991,0,0,25167,1572.938
2.7852346897125244,0,0,25165,1572.812
2.7892351150512695,0,0,25168,1573.000
2.7933006286621094,0,0,25172,1573.250
2.7972733974456787,0,0,25171,1573.188
2.801278829574585,0,0,25166,1572.875
2.8052711486816406,0,0,25165,1572.812
2.809276580810547,0,0,25167,1572.938
2.81326961517334,0,0,25171,1573.188
2.8172671794891357,0,0,25171,1573.188
2.8213162422180176,0,0,25167,1572.938
2.825272798538208,0,0,25165,1572.812
2.8292746543884277,0,0,25167,1572.938
2.8332672119140625,0,0,25171,1573.188
2.837263822555542,0,0,25171,1573.188
2.8412764072418213,0,0,25166,1572.875
2.8452727794647217,0,0,25165,1572.812
2.849270820617676,0,0,25167,1572.938
2.853264570236206,0,0,25171,1573.188
2.8572659492492676,0,0,25171,1573.188
2.8612935543060303,0,0,25166,1572.875
2.86527156829834,0,0,25165,1572.812
2.8692703247070312,0,0,25166,1572.875
2.873267650604248,0,0,25171,1573.188
2.8772695064544678,0,0,25171,1573.188
2.881322145462036,0,0,25167,1572.938
2.885265588760376,0,0,25164,1572.750
2.8892710208892822,0,0,25166,1572.875
2.8932695388793945,0,0,25171,1573.188
2.897235155105591,0,0,25171,1573.188
2.901238203048706,0,0,25167,1572.938
2.905236005783081,0,0,25165,1572.812
2.9092352390289307,0,0,25166,1572.875
2.9132299423217773,0,0,25170,1573.125
2.917226552963257,0,0,25171,1573.188
2.921231269836426,0,0,25167,1572.938
2.9252336025238037,0,0,25164,1572.750
2.929231643676758,0,0,25166,1572.875
2.933227062225342,0,0,25170,1573.125
2.937227964401245,0,0,25171,1573.188
2.9412288665771484,0,0,25167,1572.938
2.9452226161956787,0,0,25164,1572.750
2.949228286743164,0,0,25166,1572.875
2.95322847366333,0,0,25170,1573.125
2.957228183746338,0,0,25171,1573.188
2.961233139038086,0,0,25167,1572.938
2.9652292728424072,0,0,25164,1572.750
2.969231367111206,0,0,25165,1572.812
2.97322940826416,0,0,25171,1573.188
2.9772274494171143,0,0,25167,1572.938
2.981232166290283,0,0,25164,1572.750
2.985229730606079,0,0,25165,1572.812
2.9892289638519287,0,0,25169,1573.062
2.993302822113037,0,0,25170,1573.125
2.9972620010375977,0,0,25167,1572.938
3.0012714862823486,0,0,25164,1572.750
3.0052661895751953,0,0,25165,1572.812
3.009272575378418,0,0,25170,1573.125
3.8111627101898193,0,0,25167,1572.938
3.813296318054199,0,0,25170,1573.125
3.8172714710235596,0,0,25168,1573.000
3.821284294128418,0,0,25163,1572.688
3.8252737522125244,0,0,25163,1572.688
3.8292758464813232,0,0,25166,1572.875
3.8332719802856445,0,0,25169,1573.062
3.837273359298706,0,0,25168,1573.000
3.8412790298461914,0,0,25163,1572.688
3.8452706336975098,0,0,25163,1572.688
3.849278211593628,0,0,25166,1572.875
3.8532726764678955,0,0,25169,1573.062
3.857271909713745,0,0,25168,1573.000
3.8612754344940186,0,0,25163,1572.688
3.8652701377868652,0,0,25163,1572.688
3.869276762008667,0,0,25166,1572.875
3.8732705116271973,0,0,25169,1573.062
3.877269744873047,0,0,25169,1573.062
3.8812763690948486,0,0,25163,1572.688
3.8852715492248535,0,0,25163,1572.688
3.8892767429351807,0,0,25165,1572.812
3.8932695388793945,0,0,25169,1573.062
3.8972697257995605,0,0,25168,1573.000
3.901233434677124,0,0,25163,1572.688
3.905233383178711,0,0,25162,1572.625
3.9092369079589844,0,0,25165,1572.812
3.913231611251831,0,0,25168,1573.000
3.9172301292419434,0,0,25168,1573.000
3.921236515045166,0,0,25163,1572.688
3.9252312183380127,0,0,25162,1572.625
3.9292376041412354,0,0,25164,1572.750
3.9332334995269775,0,0,25169,1573.062
3.9372317790985107,0,0,25169,1573.062
3.941230058670044,0,0,25163,1572.688
3.9452292919158936,0,0,25162,1572.625
3.9492337703704834,0,0,25165,1572.812
3.9532339572906494,0,0,25169,1573.062
3.9572315216064453,0,0,25168,1573.000
3.9612388610839844,0,0,25164,1572.750
3.965231418609619,0,0,25162,1572.625
3.969236135482788,0,0,25165,1572.812
3.973231315612793,0,0,25168,1573.000
3.9772303104400635,0,0,25168,1573.000
3.9812371730804443,0,0,25164,1572.750
3.985231876373291,0,0,25162,1572.625
3.9892325401306152,0,0,25164,1572.750
3.993229866027832,0,0,25168,1573.000
3.997231960296631,0,0,25168,1573.000
4.0012733936309814,0,0,25164,1572.750
4.005269765853882,0,0,25162,1572.625
4.009268283843994,0,0,25164,1572.750
4.013254165649414,0,0,25168,1573.000
4.017252445220947,0,0,25168,1573.000
4.021271705627441,0,0,25164,1572.750
4.025269985198975,0,0,25162,1572.625
4.029271125793457,0,0,25164,1572.750
4.033267974853516,0,0,25169,1573.062
4.0372703075408936,0,0,25168,1573.000
4.041273832321167,0,0,25164,1572.750
4.045266389846802,0,0,25162,1572.625
4.049272060394287,0,0,25163,1572.688
4.053269624710083,0,0,25169,1573.062
4.057267665863037,0,0,25168,1573.000
4.061274528503418,0,0,25164,1572.750
4.065268516540527,0,0,25162,1572.625
4.069272994995117,0,0,25164,1572.750
4.073285102844238,0,0,25168,1573.000
4.077273368835449,0,0,25168,1573.000
4.081264972686768,0,0,25164,1572.750
4.085254907608032,0,0,25162,1572.625
4.08927059173584,0,0,25163,1572.688
4.093267202377319,0,0,25168,1573.000
4.097266435623169,0,0,25168,1573.000
4.101261138916016,0,0,25165,1572.812
4.105254173278809,0,0,25162,1572.625
4.109274625778198,0,0,25163,1572.688
4.113267421722412,0,0,25168,1573.000
4.117269515991211,0,0,25169,1573.062
4.121269941329956,0,0,25165,1572.812
4.125268459320068,0,0,25162,1572.625
4.129271507263184,0,0,25163,1572.688
4.133267641067505,0,0,25168,1573.000
4.137265920639038,0,0,25168,1573.000
4.141271352767944,0,0,25166,1572.875
4.146299600601196,0,0,25163,1572.688
4.149483680725098,0,0,25168,1573.000
4.153331279754639,0,0,25169,1573.062
4.157276391983032,0,0,25165,1572.812
4.1612708568573,0,0,25162,1572.625
4.165262460708618,0,0,25163,1572.688
4.169271469116211,0,0,25168,1573.000
4.173286199569702,0,0,25168,1573.000
4.177274465560913,0,0,25165,1572.812
4.181401491165161,0,0,25162,1572.625
4.185320138931274,0,0,25163,1572.688
4.189273834228516,0,0,25168,1573.000
4.19325852394104,0,0,25169,1573.062
4.197260618209839,0,0,25165,1572.812
4.201306581497192,0,0,25162,1572.625
4.205262184143066,0,0,25162,1572.625
4.209258556365967,0,0,25168,1573.000
4.213260650634766,0,0,25168,1573.000
4.217257022857666,0,0,25166,1572.875
4.221275091171265,0,0,25162,1572.625
4.225273132324219,0,0,25163,1572.688
4.229273796081543,0,0,25167,1572.938
4.233257532119751,0,0,25168,1573.000
4.237254619598389,0,0,25166,1572.875
4.241274118423462,0,0,25162,1572.625
4.245276212692261,0,0,25162,1572.625
4.2492759227752686,0,0,25167,1572.938
4.253289222717285,0,0,25168,1573.000
4.257269859313965,0,0,25166,1572.875
4.261276960372925,0,0,25162,1572.625
4.265271902084351,0,0,25162,1572.625
4.269291162490845,0,0,25167,1572.938
4.273274660110474,0,0,25168,1573.000
4.27726936340332,0,0,25166,1572.875
4.281274795532227,0,0,25162,1572.625
4.285283327102661,0,0,25162,1572.625
4.289273023605347,0,0,25167,1572.938
4.29326868057251,0,0,25168,1573.000
4.2972681522369385,0,0,25166,1572.875
4.301235675811768,0,0,25162,1572.625
4.305233001708984,0,0,25162,1572.625
4.309248447418213,0,0,25166,1572.875
4.313232898712158,0,0,25168,1573.000
4.317233085632324,0,0,25166,1572.875
4.321234464645386,0,0,25162,1572.625
4.325242042541504,0,0,25162,1572.625
4.329233407974243,0,0,25166,1572.875
4.333231449127197,0,0,25168,1573.000
4.337230682373047,0,0,25167,1572.938
4.341245174407959,0,0,25162,1572.625
4.345228433609009,0,0,25162,1572.625
4.349236488342285,0,0,25166,1572.875
4.353232383728027,0,0,25168,1573.000
4.357242584228516,0,0,25167,1572.938
4.361232280731201,0,0,25162,1572.625
4.365229845046997,0,0,25162,1572.625
4.369235277175903,0,0,25166,1572.875
4.37322735786438,0,0,25168,1573.000
4.377248525619507,0,0,25167,1572.938
4.3812339305877686,0,0,25162,1572.625
4.3852198123931885,0,0,25162,1572.625
4.3892316818237305,0,0,25165,1572.812
4.393311262130737,0,0,25168,1573.000
4.397504091262817,0,0,25166,1572.875
4.401376247406006,0,0,25162,1572.625
4.405248165130615,0,0,25161,1572.562
4.409235000610352,0,0,25165,1572.812
4.413221836090088,0,0,25168,1573.000
4.417217493057251,0,0,25167,1572.938
4.421245813369751,0,0,25162,1572.625
4.425291299819946,0,0,25161,1572.562
4.4292356967926025,0,0,25165,1572.812
4.4332194328308105,0,0,25168,1573.000
4.437215089797974,0,0,25167,1572.938
4.441242456436157,0,0,25162,1572.625
4.445221662521362,0,0,25162,1572.625
4.449220657348633,0,0,25165,1572.812
4.453217506408691,0,0,25168,1573.000
4.457217454910278,0,0,25167,1572.938
4.461230754852295,0,0,25162,1572.625
4.465229749679565,0,0,25161,1572.562
4.4692254066467285,0,0,25165,1572.812
4.47321629524231,0,0,25168,1573.000
4.477216005325317,0,0,25167,1572.938
4.4812352657318115,0,0,25162,1572.625
4.485228776931763,0,0,25161,1572.562
4.4892284870147705,0,0,25165,1572.812
4.493225812911987,0,0,25168,1573.000
4.4972240924835205,0,0,25167,1572.938
4.50133490562439,0,0,25162,1572.625
4.50527024269104,0,0,25161,1572.562
4.509270429611206,0,0,25164,1572.750
4.513266324996948,0,0,25168,1573.000
4.517263412475586,0,0,25168,1573.000
4.521267652511597,0,0,25163,1572.688
4.5252580642700195,0,0,25162,1572.625
4.529263257980347,0,0,25164,1572.750
4.533263206481934,0,0,25168,1573.000
4.537261009216309,0,0,25167,1572.938
4.5412726402282715,0,0,25163,1572.688
4.545266151428223,0,0,25162,1572.625
4.54926609992981,0,0,25164,1572.750
4.553260564804077,0,0,25168,1573.000
4.557262897491455,0,0,25167,1572.938
4.5612733364105225,0,0,25163,1572.688
4.56526780128479,0,0,25162,1572.625
4.569263219833374,0,0,25164,1572.750
4.573261499404907,0,0,25168,1573.000
4.577258825302124,0,0,25168,1573.000
4.581258296966553,0,0,25164,1572.750
4.585252523422241,0,0,25162,1572.625
4.589275360107422,0,0,25164,1572.750
4.593261241912842,0,0,25168,1573.000
4.597259044647217,0,0,25168,1573.000
4.601366758346558,0,0,25163,1572.688
4.605229139328003,0,0,25161,1572.562
4.609228849411011,0,0,25164,1572.750
4.613222360610962,0,0,25168,1573.000
4.617221832275391,0,0,25168,1573.000
4.62122654914856,0,0,25164,1572.750
4.625222682952881,0,0,25162,1572.625
4.6293110847473145,0,0,25164,1572.750
4.6334922313690186,0,0,25168,1573.000
4.637290000915527,0,0,25168,1573.000
4.6412353515625,0,0,25164,1572.750
4.645227432250977,0,0,25162,1572.625
4.649223327636719,0,0,25164,1572.750
4.653221845626831,0,0,25168,1573.000
4.6572206020355225,0,0,25168,1573.000
4.661226987838745,0,0,25164,1572.750
4.6652257442474365,0,0,25162,1572.625
4.669221639633179,0,0,25164,1572.750
4.673221826553345,0,0,25168,1573.000
4.677220106124878,0,0,25169,1573.062
4.681230068206787,0,0,25165,1572.812
4.685225009918213,0,0,25162,1572.625
4.689220190048218,0,0,25163,1572.688
4.693219900131226,0,0,25168,1573.000
4.697256803512573,0,0,25169,1573.062
4.701414346694946,0,0,25165,1572.812
4.705440521240234,0,0,25162,1572.625
4.709287405014038,0,0,25164,1572.750
4.713250398635864,0,0,25168,1573.000
4.717250108718872,0,0,25168,1573.000
4.721270561218262,0,0,25165,1572.812
4.725265264511108,0,0,25162,1572.625
4.72926139831543,0,0,25164,1572.750
4.733258485794067,0,0,25168,1573.000
4.73725962638855,0,0,25169,1573.062
4.74126672744751,0,0,25165,1572.812
4.745263338088989,0,0,25162,1572.625
4.749261856079102,0,0,25168,1573.000
4.753258466720581,0,0,25169,1573.062
4.757254362106323,0,0,25165,1572.812
4.761263608932495,0,0,25162,1572.625
4.765421152114868,0,0,25163,1572.688
4.769295930862427,0,0,25168,1573.000
4.773252725601196,0,0,25169,1573.062
4.777246475219727,0,0,25165,1572.812
4.781249523162842,0,0,25162,1572.625
4.785250902175903,0,0,25164,1572.750
4.789250135421753,0,0,25168,1573.000
4.793247222900391,0,0,25169,1573.062
4.797247409820557,0,0,25166,1572.875
4.801358699798584,0,0,25163,1572.688
4.805216550827026,0,0,25163,1572.688
4.814616918563843,0,0,25170,1573.125
4.817241907119751,0,0,25166,1572.875
4.821234464645386,0,0,25162,1572.625
4.825222730636597,0,0,25163,1572.688
4.829222679138184,0,0,25167,1572.938
4.8332178592681885,0,0,25169,1573.062
4.837218761444092,0,0,25166,1572.875
4.841220378875732,0,0,25163,1572.688
4.845211505889893,0,0,25163,1572.688
4.849218130111694,0,0,25168,1573.000
4.853219270706177,0,0,25169,1573.062
4.85721755027771,0,0,25166,1572.875
4.8612213134765625,0,0,25162,1572.625
4.86522102355957,0,0,25163,1572.688
4.869221925735474,0,0,25168,1573.000
4.873217344284058,0,0,25169,1573.062
4.877215147018433,0,0,25167,1572.938
4.881224155426025,0,0,25162,1572.625
4.8852221965789795,0,0,25162,1572.625
4.889223098754883,0,0,25167,1572.938
4.89321494102478,0,0,25169,1573.062
4.897215843200684,0,0,25167,1572.938
4.901264429092407,0,0,25162,1572.625
4.905221939086914,0,0,25162,1572.625
4.909221887588501,0,0,25167,1572.938
4.913217306137085,0,0,25169,1573.062
4.917219400405884,0,0,25167,1572.938
4.921224594116211,0,0,25163,1572.688
4.925219774246216,0,0,25163,1572.688
4.929220914840698,0,0,25167,1572.938
4.933218240737915,0,0,25169,1573.062
4.937217712402344,0,0,25167,1572.938
4.941215991973877,0,0,25162,1572.625
4.94520902633667,0,0,25163,1572.688
4.949218511581421,0,0,25167,1572.938
4.953218221664429,0,0,25168,1573.000
4.95721697807312,0,0,25167,1572.938
4.961223363876343,0,0,25162,1572.625
4.9652204513549805,0,0,25163,1572.688
4.969220876693726,0,0,25166,1572.875
4.973217725753784,0,0,25169,1573.062
4.977216005325317,0,0,25167,1572.938
4.981223106384277,0,0,25162,1572.625
4.9852190017700195,0,0,25162,1572.625
4.989221096038818,0,0,25166,1572.875
4.993216276168823,0,0,25169,1573.062
4.997213363647461,0,0,25167,1572.938
5.00131893157959,0,0,25162,1572.625
5.005251169204712,0,0,25162,1572.625
5.0092620849609375,0,0,25166,1572.875
5.0132598876953125,0,0,25169,1573.062
5.017253637313843,0,0,25167,1572.938
5.021260499954224,0,0,25163,1572.688
5.025259494781494,0,0,25162,1572.625
5.029253959655762,0,0,25166,1572.875
5.033247947692871,0,0,25169,1573.062
5.037241697311401,0,0,25167,1572.938
5.041259765625,0,0,25163,1572.688
5.045259952545166,0,0,25163,1572.688
5.04925799369812,0,0,25166,1572.875
5.053251504898071,0,0,25169,1573.062
5.05725359916687,0,0,25168,1573.000
5.061259508132935,0,0,25162,1572.625
5.06525731086731,0,0,25162,1572.625
5.069257497787476,0,0,25165,1572.812
5.073254108428955,0,0,25169,1573.062
5.077253580093384,0,0,25168,1573.000
5.08126163482666,0,0,25162,1572.625
5.085254907608032,0,0,25162,1572.625
5.089257717132568,0,0,25165,1572.812
5.09325385093689,0,0,25168,1573.000
5.097252368927002,0,0,25168,1573.000
5.101345539093018,0,0,25163,1572.688
5.10522198677063,0,0,25162,1572.625
5.109216213226318,0,0,25165,1572.812
5.113214731216431,0,0,25168,1573.000
5.117218255996704,0,0,25168,1573.000
5.121221303939819,0,0,25163,1572.688
5.125219106674194,0,0,25162,1572.625
5.12921929359436,0,0,25165,1572.812
5.1332173347473145,0,0,25168,1573.000
5.137215614318848,0,0,25168,1573.000
5.141219139099121,0,0,25163,1572.688
5.145216226577759,0,0,25162,1572.625
5.149220943450928,0,0,25165,1572.812
5.153216361999512,0,0,25169,1573.062
5.15721321105957,0,0,25168,1573.000
5.161219596862793,0,0,25163,1572.688
5.16521954536438,0,0,25162,1572.625
5.169220447540283,0,0,25164,1572.750
5.173214912414551,0,0,25168,1573.000
5.1772141456604,0,0,25168,1573.000
5.181221008300781,0,0,25163,1572.688
5.185217618942261,0,0,25162,1572.625
5.189213037490845,0,0,25164,1572.750
5.1932055950164795,0,0,25169,1573.062
5.197206258773804,0,0,25168,1573.000
5.201308488845825,0,0,25164,1572.750
5.205259323120117,0,0,25161,1572.562
5.209258079528809,0,0,25164,1572.750
5.213250160217285,0,0,25169,1573.062
5.2172510623931885,0,0,25168,1573.000
5.221256256103516,0,0,25163,1572.688
5.225255489349365,0,0,25162,1572.625
5.229257583618164,0,0,25164,1572.750
5.23324990272522,0,0,25168,1573.000
5.237249135971069,0,0,25168,1573.000
5.241252183914185,0,0,25163,1572.688
5.2452685832977295,0,0,25162,1572.625
5.249255895614624,0,0,25164,1572.750
5.2532525062561035,0,0,25168,1573.000
5.25724983215332,0,0,25168,1573.000
5.261251926422119,0,0,25164,1572.750
5.265252113342285,0,0,25162,1572.625
5.269254922866821,0,0,25164,1572.750
5.273249864578247,0,0,25169,1573.062
5.277248859405518,0,0,25169,1573.062
5.281259059906006,0,0,25164,1572.750
5.285254240036011,0,0,25162,1572.625
5.289256811141968,0,0,25164,1572.750
5.29325008392334,0,0,25168,1573.000
5.297249794006348,0,0,25169,1573.062
5.301263093948364,0,0,25165,1572.812
5.305219888687134,0,0,25162,1572.625
5.309219121932983,0,0,25163,1572.688
5.313212156295776,0,0,25168,1573.000
5.31721043586731,0,0,25169,1573.062
5.321216821670532,0,0,25165,1572.812
5.325216054916382,0,0,25162,1572.625
5.329214811325073,0,0,25164,1572.750
5.333211421966553,0,0,25168,1573.000
5.33721137046814,0,0,25168,1573.000
5.341217517852783,0,0,25163,1572.688
5.345215559005737,0,0,25164,1572.750
5.349215030670166,0,0,25169,1573.062
5.35321044921875,0,0,25168,1573.000
5.357211589813232,0,0,25165,1572.812
5.361217737197876,0,0,25162,1572.625
5.365212440490723,0,0,25163,1572.688
5.369215726852417,0,0,25168,1573.000
5.373211860656738,0,0,25169,1573.062
5.377211332321167,0,0,25166,1572.875
5.381229400634766,0,0,25162,1572.625
5.3852317333221436,0,0,25163,1572.688
5.389217853546143,0,0,25168,1573.000
5.393203258514404,0,0,25169,1573.062
5.397202014923096,0,0,25166,1572.875
5.401310205459595,0,0,25163,1572.688
5.405257940292358,0,0,25163,1572.688
5.409250736236572,0,0,25168,1573.000
5.413325786590576,0,0,25169,1573.062
5.417260408401489,0,0,25167,1572.938
5.421289443969727,0,0,25162,1572.625
5.425473213195801,0,0,25163,1572.688
5.42931056022644,0,0,25168,1573.000
5.4332435131073,0,0,25169,1573.062
5.4372406005859375,0,0,25167,1572.938
5.4413063526153564,0,0,25163,1572.688
5.445257902145386,0,0,25163,1572.688
5.449251413345337,0,0,25168,1573.000
5.453248739242554,0,0,25169,1573.062
5.457247257232666,0,0,25167,1572.938
5.46125054359436,0,0,25163,1572.688
5.465259552001953,0,0,25163,1572.688
5.469250917434692,0,0,25167,1572.938
5.473247528076172,0,0,25169,1573.062
5.477248430252075,0,0,25168,1573.000
5.481255769729614,0,0,25162,1572.625
5.48525333404541,0,0,25164,1572.750
5.489247798919678,0,0,25167,1572.938
5.493239164352417,0,0,25169,1573.062
5.497236728668213,0,0,25168,1573.000
5.501364231109619,0,0,25163,1572.688
5.5052196979522705,0,0,25163,1572.688
5.509222507476807,0,0,25168,1573.000
5.513213396072388,0,0,25170,1573.125
5.517211198806763,0,0,25167,1572.938
5.5212178230285645,0,0,25163,1572.688
5.525215148925781,0,0,25163,1572.688
5.529212951660156,0,0,25168,1573.000
5.533210039138794,0,0,25170,1573.125
5.537209510803223,0,0,25168,1573.000
5.541208982467651,0,0,25163,1572.688
5.545206785202026,0,0,25163,1572.688
5.549213647842407,0,0,25167,1572.938
5.553211450576782,0,0,25170,1573.125
5.55721116065979,0,0,25168,1573.000
5.561218023300171,0,0,25163,1572.688
5.565215349197388,0,0,25164,1572.750
5.569215297698975,0,0,25167,1572.938
5.573209285736084,0,0,25170,1573.125
5.5772106647491455,0,0,25168,1573.000
5.581215858459473,0,0,25164,1572.750
5.585214138031006,0,0,25164,1572.750
5.589214563369751,0,0,25168,1573.000
5.593210935592651,0,0,25170,1573.125
5.597211122512817,0,0,25169,1573.062
5.601307392120361,0,0,25164,1572.750
5.605243682861328,0,0,25163,1572.688
5.609247446060181,0,0,25167,1572.938
5.613248586654663,0,0,25170,1573.125
5.617247819900513,0,0,25168,1573.000
5.621253728866577,0,0,25164,1572.750
5.6252501010894775,0,0,25164,1572.750
5.6293346881866455,0,0,25167,1572.938
5.6335976123809814,0,0,25170,1573.125
5.637371301651001,0,0,25169,1573.062
5.641266345977783,0,0,25164,1572.750
5.6452553272247314,0,0,25164,1572.750
5.649255037307739,0,0,25167,1572.938
5.65324854850769,0,0,25170,1573.125
5.657246828079224,0,0,25169,1573.062
5.661250591278076,0,0,25164,1572.750
5.665251016616821,0,0,25164,1572.750
5.66924786567688,0,0,25167,1572.938
5.673246383666992,0,0,25170,1573.125
5.677245140075684,0,0,25169,1573.062
5.681256055831909,0,0,25165,1572.812
5.685251235961914,0,0,25164,1572.750
5.689245223999023,0,0,25166,1572.875
5.693241834640503,0,0,25170,1573.125
5.697234392166138,0,0,25169,1573.062
5.701359510421753,0,0,25165,1572.812
5.705221891403198,0,0,25164,1572.750
5.709215402603149,0,0,25167,1572.938
5.713208436965942,0,0,25170,1573.125
5.717206954956055,0,0,25169,1573.062
5.721211671829224,0,0,25165,1572.812
5.725201606750488,0,0,25164,1572.750
5.729221820831299,0,0,25166,1572.875
5.7332141399383545,0,0,25170,1573.125
5.737207889556885,0,0,25170,1573.125
5.74121356010437,0,0,25165,1572.812
5.74521017074585,0,0,25163,1572.688
5.749212265014648,0,0,25166,1572.875
5.753207445144653,0,0,25169,1573.062
5.757205963134766,0,0,25169,1573.062
5.761214017868042,0,0,25165,1572.812
5.765214204788208,0,0,25164,1572.750
5.769211292266846,0,0,25166,1572.875
5.773205041885376,0,0,25170,1573.125
5.777205228805542,0,0,25170,1573.125
5.781208753585815,0,0,25165,1572.812
5.785210609436035,0,0,25164,1572.750
5.789209604263306,0,0,25166,1572.875
5.793206691741943,0,0,25169,1573.062
5.797208786010742,0,0,25169,1573.062
5.801303386688232,0,0,25166,1572.875
5.805253982543945,0,0,25164,1572.750
5.809251070022583,0,0,25165,1572.812
5.819834232330322,0,0,25166,1572.875
5.821270704269409,0,0,25166,1572.875
5.825254678726196,0,0,25163,1572.688
5.829249143600464,0,0,25166,1572.875
5.833245277404785,0,0,25170,1573.125
5.8372437953948975,0,0,25169,1573.062
5.841256380081177,0,0,25166,1572.875
5.845251798629761,0,0,25163,1572.688
5.849248886108398,0,0,25165,1572.812
5.853242635726929,0,0,25170,1573.125
5.857244253158569,0,0,25170,1573.125
5.861250638961792,0,0,25166,1572.875
5.865245819091797,0,0,25164,1572.750
5.869246482849121,0,0,25165,1572.812
5.873241186141968,0,0,25170,1573.125
5.877242803573608,0,0,25170,1573.125
5.881248950958252,0,0,25166,1572.875
5.885243892669678,0,0,25164,1572.750
5.889245986938477,0,0,25165,1572.812
5.893242597579956,0,0,25169,1573.062
5.897242069244385,0,0,25170,1573.125
5.901353120803833,0,0,25166,1572.875
5.905215263366699,0,0,25164,1572.750
5.909210681915283,0,0,25165,1572.812
5.913205862045288,0,0,25169,1573.062
5.917206525802612,0,0,25170,1573.125
5.921211004257202,0,0,25167,1572.938
5.925206184387207,0,0,25164,1572.750
5.92920708656311,0,0,25165,1572.812
5.933205604553223,0,0,25170,1573.125
5.937203645706177,0,0,25167,1572.938
5.941204786300659,0,0,25164,1572.750
5.945196866989136,0,0,25165,1572.812
5.949207067489624,0,0,25169,1573.062
5.953205585479736,0,0,25170,1573.125
5.95720362663269,0,0,25167,1572.938
5.961209297180176,0,0,25164,1572.750
5.965210199356079,0,0,25165,1572.812
5.969208002090454,0,0,25169,1573.062
5.973202228546143,0,0,25170,1573.125
5.977202653884888,0,0,25167,1572.938
5.98120641708374,0,0,25164,1572.750
5.9852049350738525,0,0,25165,1572.812
5.989209175109863,0,0,25170,1573.125
5.99320387840271,0,0,25170,1573.125
5.997201681137085,0,0,25168,1573.000
6.001299858093262,0,0,25164,1572.750
6.005251169204712,0,0,25165,1572.812
6.0092453956604,0,0,25169,1573.062
6.0132434368133545,0,0,25170,1573.125
6.017242431640625,0,0,25168,1573.000
6.0212483406066895,0,0,25164,1572.750
6.025243759155273,0,0,25165,1572.812
6.029248476028442,0,0,25169,1573.062
6.033239126205444,0,0,25170,1573.125
6.037238121032715,0,0,25168,1573.000
6.041240215301514,0,0,25164,1572.750
6.04523229598999,0,0,25165,1572.812
6.049241304397583,0,0,25169,1573.062
6.053229570388794,0,0,25170,1573.125
6.05722975730896,0,0,25168,1573.000
6.061246871948242,0,0,25164,1572.750
6.065244197845459,0,0,25165,1572.812
6.069243669509888,0,0,25169,1573.062
6.073239803314209,0,0,25170,1573.125
6.077239513397217,0,0,25168,1573.000
6.081246376037598,0,0,25164,1572.750
6.08523964881897,0,0,25164,1572.750
6.08924412727356,0,0,25168,1573.000
6.0932416915893555,0,0,25171,1573.188
6.097240924835205,0,0,25168,1573.000
6.101332187652588,0,0,25164,1572.750
6.105209112167358,0,0,25164,1572.750
6.109203815460205,0,0,25168,1573.000
6.11320161819458,0,0,25170,1573.125
6.117202520370483,0,0,25168,1573.000
6.121208667755127,0,0,25164,1572.750
6.1252031326293945,0,0,25165,1572.812
6.129204750061035,0,0,25168,1573.000
6.133200168609619,0,0,25170,1573.125
6.137199878692627,0,0,25168,1573.000
6.141207933425903,0,0,25164,1572.750
6.14520525932312,0,0,25164,1572.750
6.149206876754761,0,0,25168,1573.000
6.153202772140503,0,0,25170,1573.125
6.157198667526245,0,0,25168,1573.000
6.161206245422363,0,0,25165,1572.812
6.165205478668213,0,0,25165,1572.812
6.169207811355591,0,0,25168,1573.000
6.173200607299805,0,0,25170,1573.125
6.177201271057129,0,0,25169,1573.062
6.181208610534668,0,0,25165,1572.812
6.185204267501831,0,0,25164,1572.750
6.189199686050415,0,0,25168,1573.000
6.193193674087524,0,0,25170,1573.125
6.197192907333374,0,0,25169,1573.062
6.201294660568237,0,0,25165,1572.812
6.2052459716796875,0,0,25164,1572.750
6.209245443344116,0,0,25167,1572.938
6.213238716125488,0,0,25170,1573.125
6.217237234115601,0,0,25169,1573.062
6.221248149871826,0,0,25165,1572.812
6.225243091583252,0,0,25164,1572.750
6.229241609573364,0,0,25167,1572.938
6.23325252532959,0,0,25170,1573.125
6.237236738204956,0,0,25169,1573.062
6.241244792938232,0,0,25165,1572.812
6.245241165161133,0,0,25164,1572.750
6.249241828918457,0,0,25167,1572.938
6.253236293792725,0,0,25170,1573.125
6.2572362422943115,0,0,25169,1573.062
6.261245489120483,0,0,25165,1572.812
6.265242576599121,0,0,25164,1572.750
6.269240856170654,0,0,25167,1572.938
6.2732367515563965,0,0,25170,1573.125
6.2772369384765625,0,0,25170,1573.125
6.281235218048096,0,0,25165,1572.812
6.285228252410889,0,0,25164,1572.750
6.289243459701538,0,0,25167,1572.938
6.2932398319244385,0,0,25171,1573.188
6.297238826751709,0,0,25170,1573.125
6.301246643066406,0,0,25165,1572.812
6.305209398269653,0,0,25164,1572.750
6.309205532073975,0,0,25167,1572.938
6.313199520111084,0,0,25170,1573.125
6.317197799682617,0,0,25170,1573.125
6.321204662322998,0,0,25165,1572.812
6.3252012729644775,0,0,25164,1572.750
6.3292036056518555,0,0,25167,1572.938
6.3331992626190186,0,0,25171,1573.188
6.337199449539185,0,0,25170,1573.125
6.341202735900879,0,0,25166,1572.875
6.34520149230957,0,0,25164,1572.750
6.349203824996948,0,0,25166,1572.875
6.353198051452637,0,0,25170,1573.125
6.357197523117065,0,0,25170,1573.125
6.361203193664551,0,0,25166,1572.875
6.365200996398926,0,0,25165,1572.812
6.369203567504883,0,0,25166,1572.875
6.373197555541992,0,0,25169,1573.062
6.377198934555054,0,0,25170,1573.125
6.381204843521118,0,0,25165,1572.812
6.3852009773254395,0,0,25164,1572.750
6.389202117919922,0,0,25166,1572.875
6.393198013305664,0,0,25170,1573.125
6.39719820022583,0,0,25170,1573.125
6.401281118392944,0,0,25166,1572.875
6.405241966247559,0,0,25164,1572.750
6.409242868423462,0,0,25166,1572.875
6.413235187530518,0,0,25170,1573.125
6.417233943939209,0,0,25170,1573.125
6.421240568161011,0,0,25166,1572.875
6.425239086151123,0,0,25164,1572.750
6.4292402267456055,0,0,25166,1572.875
6.433233976364136,0,0,25170,1573.125
6.4372336864471436,0,0,25169,1573.062
6.441235542297363,0,0,25166,1572.875
6.44523024559021,0,0,25165,1572.812
6.449236631393433,0,0,25165,1572.812
6.453235864639282,0,0,25170,1573.125
6.45723557472229,0,0,25170,1573.125
6.461242914199829,0,0,25166,1572.875
6.465238809585571,0,0,25164,1572.750
6.4692394733428955,0,0,25165,1572.812
6.473236560821533,0,0,25170,1573.125
6.477235555648804,0,0,25170,1573.125
6.481242418289185,0,0,25166,1572.875
6.485239028930664,0,0,25164,1572.750
6.489243745803833,0,0,25165,1572.812
6.493234157562256,0,0,25169,1573.062
6.4972333908081055,0,0,25170,1573.125
6.501302480697632,0,0,25167,1572.938
6.505206346511841,0,0,25164,1572.750
6.509202003479004,0,0,25165,1572.812
6.513203382492065,0,0,25169,1573.062
6.517197608947754,0,0,25170,1573.125
6.521204710006714,0,0,25167,1572.938
6.525200605392456,0,0,25165,1572.812
6.529200792312622,0,0,25170,1573.125
6.5331971645355225,0,0,25170,1573.125
6.537197828292847,0,0,25167,1572.938
6.541203022003174,0,0,25164,1572.750
6.545199871063232,0,0,25165,1572.812
6.549200534820557,0,0,25169,1573.062
6.553196907043457,0,0,25170,1573.125
6.557195425033569,0,0,25167,1572.938
6.561196565628052,0,0,25164,1572.750
6.565192461013794,0,0,25165,1572.812
6.569197177886963,0,0,25169,1573.062
6.573193550109863,0,0,25171,1573.188
6.577194452285767,0,0,25168,1573.000
6.581204175949097,0,0,25164,1572.750
6.585198879241943,0,0,25165,1572.812
6.589196443557739,0,0,25169,1573.062
6.593196153640747,0,0,25170,1573.125
6.59719443321228,0,0,25167,1572.938
6.60129451751709,0,0,25164,1572.750
6.605239629745483,0,0,25165,1572.812
6.609239816665649,0,0,25169,1573.062
6.613231182098389,0,0,25170,1573.125
6.617233753204346,0,0,25167,1572.938
6.621229648590088,0,0,25165,1572.812
6.625225782394409,0,0,25165,1572.812
6.629323244094849,0,0,25169,1573.062
6.633577108383179,0,0,25170,1573.125
6.637381315231323,0,0,25168,1573.000
6.64125394821167,0,0,25164,1572.750
6.645238876342773,0,0,25164,1572.750
6.649237155914307,0,0,25169,1573.062
6.653233528137207,0,0,25170,1573.125
6.65723443031311,0,0,25168,1573.000
6.661235094070435,0,0,25164,1572.750
6.665237665176392,0,0,25164,1572.750
6.669236183166504,0,0,25168,1573.000
6.673234462738037,0,0,25170,1573.125
6.677231311798096,0,0,25168,1573.000
6.681237697601318,0,0,25164,1572.750
6.68523907661438,0,0,25164,1572.750
6.689232349395752,0,0,25168,1573.000
6.6932384967803955,0,0,25170,1573.125
6.697237491607666,0,0,25169,1573.062
6.701349973678589,0,0,25164,1572.750
6.705203056335449,0,0,25164,1572.750
6.709197044372559,0,0,25168,1573.000
6.713191747665405,0,0,25170,1573.125
6.717190980911255,0,0,25169,1573.062
6.7211949825286865,0,0,25164,1572.750
6.725196361541748,0,0,25164,1572.750
6.729193925857544,0,0,25168,1573.000
6.733194589614868,0,0,25170,1573.125
6.737193584442139,0,0,25169,1573.062
6.741198778152466,0,0,25164,1572.750
6.7452027797698975,0,0,25164,1572.750
6.749195337295532,0,0,25168,1573.000
6.753193378448486,0,0,25170,1573.125
6.757195472717285,0,0,25169,1573.062
6.761199712753296,0,0,25164,1572.750
6.765198230743408,0,0,25164,1572.750
6.769199371337891,0,0,25168,1573.000
6.77319598197937,0,0,25170,1573.125
6.777194976806641,0,0,25169,1573.062
6.781198501586914,0,0,25164,1572.750
6.7851972579956055,0,0,25163,1572.688
6.789195537567139,0,0,25167,1572.938
6.793193578720093,0,0,25170,1573.125
6.797194957733154,0,0,25169,1573.062
6.801298141479492,0,0,25164,1572.750
6.805316925048828,0,0,25164,1572.750
6.809258699417114,0,0,25168,1573.000
6.815391302108765,0,0,25169,1573.062
6.825929403305054,0,0,25165,1572.812
6.829279899597168,0,0,25167,1572.938
6.8332250118255615,0,0,25170,1573.125
6.837234973907471,0,0,25169,1573.062
6.841292142868042,0,0,25165,1572.812
6.845273494720459,0,0,25164,1572.750
6.849225759506226,0,0,25167,1572.938
6.853218078613281,0,0,25170,1573.125
6.857217311859131,0,0,25169,1573.062
6.8612494468688965,0,0,25165,1572.812
6.865222930908203,0,0,25164,1572.750
6.869216442108154,0,0,25166,1572.875
6.873216867446899,0,0,25170,1573.125
6.877228736877441,0,0,25169,1573.062
6.881228446960449,0,0,25165,1572.812
6.885226488113403,0,0,25163,1572.688
6.889227390289307,0,0,25166,1572.875
6.893228769302368,0,0,25170,1573.125
6.897216320037842,0,0,25169,1573.062
6.9013450145721436,0,0,25165,1572.812
6.905197620391846,0,0,25164,1572.750
6.909195423126221,0,0,25166,1572.875
6.913190841674805,0,0,25169,1573.062
6.917189598083496,0,0,25169,1573.062
6.921193838119507,0,0,25165,1572.812
6.925190210342407,0,0,25164,1572.750
6.9291956424713135,0,0,25166,1572.875
6.933189153671265,0,0,25170,1573.125
6.937189102172852,0,0,25169,1573.062
6.941190004348755,0,0,25165,1572.812
6.945181846618652,0,0,25163,1572.688
6.94918966293335,0,0,25166,1572.875
6.953190088272095,0,0,25170,1573.125
6.957190752029419,0,0,25169,1573.062
6.961194753646851,0,0,25165,1572.812
6.9651899337768555,0,0,25164,1572.750
6.9691925048828125,0,0,25166,1572.875
6.973191261291504,0,0,25169,1573.062
6.977189540863037,0,0,25170,1573.125
6.981189966201782,0,0,25165,1572.812
6.98518967628479,0,0,25164,1572.750
6.989192247390747,0,0,25165,1572.812
6.993189573287964,0,0,25170,1573.125
6.997189044952393,0,0,25170,1573.125
7.001275539398193,0,0,25165,1572.812
7.0052313804626465,0,0,25164,1572.750
7.009229421615601,0,0,25165,1572.812
7.0132410526275635,0,0,25169,1573.062
7.017231464385986,0,0,25169,1573.062
7.021222829818726,0,0,25166,1572.875
7.025216579437256,0,0,25163,1572.688
7.029229402542114,0,0,25165,1572.812
7.033226251602173,0,0,25169,1573.062
7.037228107452393,0,0,25169,1573.062
7.041229724884033,0,0,25166,1572.875
7.04522442817688,0,0,25163,1572.688
7.0492308139801025,0,0,25165,1572.812
7.053227424621582,0,0,25169,1573.062
7.057224988937378,0,0,25169,1573.062
7.061227083206177,0,0,25166,1572.875
7.065224647521973,0,0,25164,1572.750
7.069223165512085,0,0,25165,1572.812
7.073214769363403,0,0,25169,1573.062
7.0772154331207275,0,0,25169,1573.062
7.081226110458374,0,0,25166,1572.875
7.085225820541382,0,0,25164,1572.750
7.0892298221588135,0,0,25165,1572.812
7.093225479125977,0,0,25169,1573.062
7.097227334976196,0,0,25169,1573.062
7.1013102531433105,0,0,25164,1572.750
7.105191230773926,0,0,25164,1572.750
7.109191417694092,0,0,25165,1572.812
7.11318826675415,0,0,25169,1573.062
7.117188215255737,0,0,25167,1572.938
7.12119197845459,0,0,25163,1572.688
7.125189781188965,0,0,25164,1572.750
7.129191875457764,0,0,25169,1573.062
7.1331892013549805,0,0,25170,1573.125
7.137186765670776,0,0,25167,1572.938
7.1411848068237305,0,0,25164,1572.750
7.14518666267395,0,0,25164,1572.750
7.149215459823608,0,0,25169,1573.062
7.153188467025757,0,0,25170,1573.125
7.157188415527344,0,0,25167,1572.938
7.161190509796143,0,0,25163,1572.688
7.1651880741119385,0,0,25164,1572.750
7.169191360473633,0,0,25169,1573.062
7.173184633255005,0,0,25170,1573.125
7.177186965942383,0,0,25168,1573.000
7.181186676025391,0,0,25164,1572.750
7.185187578201294,0,0,25164,1572.750
7.189184188842773,0,0,25169,1573.062
7.193177938461304,0,0,25170,1573.125
7.197178363800049,0,0,25167,1572.938
7.201272487640381,0,0,25164,1572.750
7.205228090286255,0,0,25164,1572.750
7.209229469299316,0,0,25169,1573.062
7.213226556777954,0,0,25169,1573.062
7.217224597930908,0,0,25168,1573.000
7.221222877502441,0,0,25164,1572.750
7.225223064422607,0,0,25164,1572.750
7.229225158691406,0,0,25168,1573.000
7.233224630355835,0,0,25170,1573.125
7.237224102020264,0,0,25168,1573.000
7.241228103637695,0,0,25163,1572.688
7.245222806930542,0,0,25164,1572.750
7.24923038482666,0,0,25168,1573.000
7.253223896026611,0,0,25170,1573.125
7.2572245597839355,0,0,25168,1573.000
7.261224985122681,0,0,25164,1572.750
7.2652270793914795,0,0,25164,1572.750
7.269226312637329,0,0,25168,1573.000
7.273225784301758,0,0,25170,1573.125
7.277223825454712,0,0,25168,1573.000
7.281225681304932,0,0,25164,1572.750
7.28521990776062,0,0,25164,1572.750
7.289227247238159,0,0,25168,1573.000
7.29322075843811,0,0,25170,1573.125
7.2972187995910645,0,0,25168,1573.000
7.301226854324341,0,0,25164,1572.750
7.305189847946167,0,0,25164,1572.750
7.309187650680542,0,0,25168,1573.000
7.3131866455078125,0,0,25169,1573.062
7.317183971405029,0,0,25168,1573.000
7.3211822509765625,0,0,25164,1572.750
7.325174331665039,0,0,25164,1572.750
7.329190731048584,0,0,25167,1572.938
7.333186149597168,0,0,25170,1573.125
7.3371851444244385,0,0,25168,1573.000
7.341182708740234,0,0,25164,1572.750
7.345185995101929,0,0,25163,1572.688
7.349185466766357,0,0,25167,1572.938
7.353184938430786,0,0,25170,1573.125
7.357185363769531,0,0,25168,1573.000
7.361185789108276,0,0,25164,1572.750
7.365184783935547,0,0,25164,1572.750
7.36918830871582,0,0,25167,1572.938
7.373183727264404,0,0,25170,1573.125
7.377183437347412,0,0,25168,1573.000
7.3811845779418945,0,0,25165,1572.812
7.385204792022705,0,0,25164,1572.750
7.389184474945068,0,0,25167,1572.938
7.393177032470703,0,0,25170,1573.125
7.397174835205078,0,0,25169,1573.062
7.401593923568726,0,0,25164,1572.750
7.405308485031128,0,0,25164,1572.750
7.4092535972595215,0,0,25167,1572.938
7.414920806884766,0,0,25169,1573.062
7.41727876663208,0,0,25169,1573.062
7.421229124069214,0,0,25164,1572.750
7.425216436386108,0,0,25164,1572.750
7.429253816604614,0,0,25166,1572.875
7.4332311153411865,0,0,25170,1573.125
7.4372239112854,0,0,25169,1573.062
7.441359281539917,0,0,25164,1572.750
7.4452431201934814,0,0,25164,1572.750
7.449215888977051,0,0,25167,1572.938
7.453210353851318,0,0,25170,1573.125
7.457209825515747,0,0,25169,1573.062
7.461248874664307,0,0,25165,1572.812
7.465221643447876,0,0,25164,1572.750
7.46921181678772,0,0,25166,1572.875
7.473208904266357,0,0,25170,1573.125
7.477208375930786,0,0,25169,1573.062
7.48122239112854,0,0,25165,1572.812
7.485222816467285,0,0,25164,1572.750
7.48922061920166,0,0,25166,1572.875
7.493210792541504,0,0,25170,1573.125
7.497209310531616,0,0,25169,1573.062
7.5013298988342285,0,0,25165,1572.812
7.505190372467041,0,0,25164,1572.750
7.509180068969727,0,0,25166,1572.875
7.513196706771851,0,0,25170,1573.125
7.517184734344482,0,0,25169,1573.062
7.521184206008911,0,0,25165,1572.812
7.525184869766235,0,0,25164,1572.750
7.529186964035034,0,0,25166,1572.875
7.533180236816406,0,0,25170,1573.125
7.537180662155151,0,0,25170,1573.125
7.5411834716796875,0,0,25166,1572.875
7.54517936706543,0,0,25164,1572.750
7.549180269241333,0,0,25166,1572.875
7.553180456161499,0,0,25169,1573.062
7.557182312011719,0,0,25170,1573.125
7.561182022094727,0,0,25165,1572.812
7.565178155899048,0,0,25164,1572.750
7.569185018539429,0,0,25166,1572.875
7.573181390762329,0,0,25170,1573.125
7.5771803855896,0,0,25170,1573.125
7.581175804138184,0,0,25166,1572.875
7.585170269012451,0,0,25164,1572.750
7.589184284210205,0,0,25165,1572.812
7.593180418014526,0,0,25169,1573.062
7.597179174423218,0,0,25170,1573.125
7.601274490356445,0,0,25166,1572.875
7.605220317840576,0,0,25164,1572.750
7.609223127365112,0,0,25165,1572.812
7.61321759223938,0,0,25169,1573.062
7.6172168254852295,0,0,25170,1573.125
7.621213912963867,0,0,25166,1572.875
7.625215530395508,0,0,25164,1572.750
7.633275508880615,0,0,25169,1573.062
7.634730577468872,0,0,25170,1573.125
7.63726806640625,0,0,25170,1573.125
7.641213893890381,0,0,25165,1572.812
7.645210027694702,0,0,25164,1572.750
7.649215221405029,0,0,25165,1572.812
7.653207540512085,0,0,25169,1573.062
7.657205104827881,0,0,25169,1573.062
7.661210536956787,0,0,25166,1572.875
7.665208101272583,0,0,25164,1572.750
7.669215679168701,0,0,25165,1572.812
7.6732177734375,0,0,25169,1573.062
7.677217721939087,0,0,25170,1573.125
7.681219100952148,0,0,25167,1572.938
7.685214281082153,0,0,25164,1572.750
7.68921685218811,0,0,25165,1572.812
7.693206310272217,0,0,25169,1573.062
7.69720458984375,0,0,25170,1573.125
7.701223134994507,0,0,25164,1572.750
7.705183506011963,0,0,25165,1572.812
7.709179401397705,0,0,25169,1573.062
7.713178873062134,0,0,25170,1573.125
7.717178106307983,0,0,25167,1572.938
7.721179485321045,0,0,25164,1572.750
7.725177049636841,0,0,25164,1572.750
7.729182958602905,0,0,25169,1573.062
7.733177900314331,0,0,25170,1573.125
7.737177610397339,0,0,25168,1573.000
7.7411768436431885,0,0,25163,1572.688
7.745179653167725,0,0,25165,1572.812
7.7491796016693115,0,0,25169,1573.062
7.7531774044036865,0,0,25170,1573.125
7.757177352905273,0,0,25167,1572.938
7.761178731918335,0,0,25164,1572.750
7.765178203582764,0,0,25165,1572.812
7.769185781478882,0,0,25169,1573.062
7.773179054260254,0,0,25170,1573.125
7.777177572250366,0,0,25167,1572.938
7.781173467636108,0,0,25164,1572.750
7.7851762771606445,0,0,25164,1572.750
7.789180278778076,0,0,25169,1573.062
7.793178081512451,0,0,25170,1573.125
7.797176122665405,0,0,25168,1573.000
7.801259279251099,0,0,25164,1572.750
7.8052077293396,0,0,25165,1572.812
7.809220552444458,0,0,25169,1573.062
7.813218593597412,0,0,25170,1573.125
7.817214727401733,0,0,25168,1573.000
7.821214199066162,0,0,25164,1572.750
7.831773281097412,0,0,25169,1573.062
7.833250999450684,0,0,25170,1573.125
7.837226152420044,0,0,25169,1573.062
7.8412251472473145,0,0,25164,1572.750
7.845218896865845,0,0,25164,1572.750
7.849221706390381,0,0,25168,1573.000
7.853215456008911,0,0,25170,1573.125
7.85721492767334,0,0,25168,1573.000
7.861206769943237,0,0,25164,1572.750
7.865205526351929,0,0,25164,1572.750
7.869216203689575,0,0,25168,1573.000
7.873215675354004,0,0,25171,1573.188
7.877214670181274,0,0,25168,1573.000
7.881216049194336,0,0,25165,1572.812
7.885213375091553,0,0,25164,1572.750
7.8892199993133545,0,0,25168,1573.000
7.893217325210571,0,0,25170,1573.125
7.897213459014893,0,0,25168,1573.000
7.901353120803833,0,0,25164,1572.750
7.905179738998413,0,0,25164,1572.750
7.909179449081421,0,0,25168,1573.000
7.9131786823272705,0,0,25170,1573.125
7.917176723480225,0,0,25169,1573.062
7.921180486679077,0,0,25165,1572.812
7.925174951553345,0,0,25164,1572.750
7.929179668426514,0,0,25168,1573.000
7.93317723274231,0,0,25170,1573.125
7.937176465988159,0,0,25169,1573.062
7.941171407699585,0,0,25164,1572.750
7.945167064666748,0,0,25164,1572.750
7.949178218841553,0,0,25167,1572.938
7.953178405761719,0,0,25170,1573.125
7.957177400588989,0,0,25168,1573.000
7.961178779602051,0,0,25164,1572.750
7.965176343917847,0,0,25164,1572.750
7.969179630279541,0,0,25167,1572.938
7.973176002502441,0,0,25170,1573.125
7.977176666259766,0,0,25169,1573.062
7.981173276901245,0,0,25164,1572.750
7.985174894332886,0,0,25164,1572.750
7.98917818069458,0,0,25167,1572.938
7.993177175521851,0,0,25171,1573.188
7.997176170349121,0,0,25169,1573.062
8.00126338005066,0,0,25165,1572.812
8.005218505859375,0,0,25164,1572.750
8.009217500686646,0,0,25167,1572.938
8.01322889328003,0,0,25169,1573.062
8.01721978187561,0,0,25169,1573.062
8.021214008331299,0,0,25165,1572.812
8.025215148925781,0,0,25163,1572.688
8.029208421707153,0,0,25166,1572.875
8.033203125,0,0,25170,1573.125
8.03720235824585,0,0,25169,1573.062
8.041214227676392,0,0,25164,1572.750
8.045213460922241,0,0,25164,1572.750
8.049219369888306,0,0,25167,1572.938
8.05321478843689,0,0,25169,1573.062
8.05721378326416,0,0,25170,1573.125
8.061210632324219,0,0,25165,1572.812
8.065210819244385,0,0,25164,1572.750
8.069215774536133,0,0,25166,1572.875
8.073216438293457,0,0,25170,1573.125
8.077213287353516,0,0,25169,1573.062
8.081215858459473,0,0,25165,1572.812
8.085211992263794,0,0,25164,1572.750
8.089212417602539,0,0,25166,1572.875
8.093199968338013,0,0,25170,1573.125
8.097200393676758,0,0,25170,1573.125
8.101303339004517,0,0,25166,1572.875
8.105178117752075,0,0,25164,1572.750
8.109178304672241,0,0,25166,1572.875
8.113176107406616,0,0,25170,1573.125
8.117175817489624,0,0,25170,1573.125
8.121176958084106,0,0,25166,1572.875
8.125176668167114,0,0,25164,1572.750
8.12917947769165,0,0,25166,1572.875
8.13317608833313,0,0,25170,1573.125
8.1371750831604,0,0,25170,1573.125
8.141174793243408,0,0,25166,1572.875
8.14517617225647,0,0,25164,1572.750
8.149180889129639,0,0,25165,1572.812
8.153178215026855,0,0,25170,1573.125
8.157176733016968,0,0,25169,1573.062
8.161178350448608,0,0,25166,1572.875
8.165174961090088,0,0,25164,1572.750
8.169179916381836,0,0,25166,1572.875
8.173175811767578,0,0,25169,1573.062
8.17717432975769,0,0,25170,1573.125
8.181175708770752,0,0,25166,1572.875
8.185174465179443,0,0,25164,1572.750
8.189170837402344,0,0,25166,1572.875
8.193164348602295,0,0,25169,1573.062
8.197164535522461,0,0,25170,1573.125
8.201260089874268,0,0,25166,1572.875
8.205217838287354,0,0,25163,1572.688
8.209218740463257,0,0,25165,1572.812
8.213216066360474,0,0,25169,1573.062
8.217212200164795,0,0,25170,1573.125
8.221208572387695,0,0,25167,1572.938
8.225211381912231,0,0,25164,1572.750
8.229214191436768,0,0,25165,1572.812
8.233214139938354,0,0,25170,1573.125
8.23721170425415,0,0,25170,1573.125
8.241214752197266,0,0,25167,1572.938
8.245211839675903,0,0,25164,1572.750
8.249215602874756,0,0,25165,1572.812
8.253212451934814,0,0,25169,1573.062
8.257210731506348,0,0,25169,1573.062
8.26120924949646,0,0,25167,1572.938
8.265211582183838,0,0,25164,1572.750
8.269208908081055,0,0,25165,1572.812
8.27321171760559,0,0,25169,1573.062
8.277211904525757,0,0,25170,1573.125
8.281214237213135,0,0,25167,1572.938
8.285214185714722,0,0,25164,1572.750
8.289215803146362,0,0,25165,1572.812
8.293211221694946,0,0,25170,1573.125
8.29720950126648,0,0,25167,1572.938
8.301210165023804,0,0,25164,1572.750
8.305175304412842,0,0,25165,1572.812
8.309175729751587,0,0,25169,1573.062
8.313174486160278,0,0,25170,1573.125
8.31717300415039,0,0,25167,1572.938
8.32117772102356,0,0,25164,1572.750
8.325171947479248,0,0,25164,1572.750
8.329178810119629,0,0,25169,1573.062
8.333172082901001,0,0,25170,1573.125
8.337173461914062,0,0,25168,1573.000
8.341171741485596,0,0,25164,1572.750
8.345168590545654,0,0,25165,1572.812
8.349173545837402,0,0,25169,1573.062
8.353172540664673,0,0,25170,1573.125
8.35717248916626,0,0,25168,1573.000
8.361169338226318,0,0,25164,1572.750
8.365164041519165,0,0,25165,1572.812
8.369174718856812,0,0,25169,1573.062
8.373586416244507,0,0,25170,1573.125
8.377179145812988,0,0,25168,1573.000
8.381169557571411,0,0,25164,1572.750
8.385164499282837,0,0,25164,1572.750
8.389190673828125,0,0,25169,1573.062
8.393248796463013,0,0,25170,1573.125
8.397183179855347,0,0,25168,1573.000
8.401313543319702,0,0,25164,1572.750
8.405425071716309,0,0,25164,1572.750
8.409310817718506,0,0,25168,1573.000
8.413208484649658,0,0,25170,1573.125
8.417198896408081,0,0,25168,1573.000
8.421233177185059,0,0,25164,1572.750
8.425215005874634,0,0,25164,1572.750
8.429211378097534,0,0,25168,1573.000
8.433259725570679,0,0,25170,1573.125
8.437217235565186,0,0,25168,1573.000
8.441210746765137,0,0,25164,1572.750
8.445210456848145,0,0,25164,1572.750
8.44922661781311,0,0,25168,1573.000
8.453213453292847,0,0,25170,1573.125
8.457196950912476,0,0,25168,1573.000
8.461211204528809,0,0,25164,1572.750
8.4652099609375,0,0,25164,1572.750
8.469213247299194,0,0,25167,1572.938
8.473211765289307,0,0,25169,1573.062
8.47721004486084,0,0,25168,1573.000
8.481206893920898,0,0,25164,1572.750
8.485199213027954,0,0,25164,1572.750
8.4892098903656,0,0,25167,1572.938
8.493209838867188,0,0,25170,1573.125
8.497206449508667,0,0,25168,1573.000
8.501280307769775,0,0,25164,1572.750
8.505175828933716,0,0,25164,1572.750
8.509171724319458,0,0,25168,1573.000
8.513349056243896,0,0,25170,1573.125
8.517175197601318,0,0,25169,1573.062
8.521174430847168,0,0,25164,1572.750
8.525169372558594,0,0,25163,1572.688
8.529175281524658,0,0,25167,1572.938
8.53317141532898,0,0,25170,1573.125
8.537168979644775,0,0,25169,1573.062
8.541168689727783,0,0,25164,1572.750
8.545167684555054,0,0,25164,1572.750
8.549171924591064,0,0,25167,1572.938
8.553168535232544,0,0,25170,1573.125
8.557171106338501,0,0,25169,1573.062
8.561172008514404,0,0,25164,1572.750
8.565165996551514,0,0,25164,1572.750
8.569175004959106,0,0,25167,1572.938
8.57317042350769,0,0,25170,1573.125
8.577169179916382,0,0,25169,1573.062
8.581165552139282,0,0,25165,1572.812
8.585165977478027,0,0,25164,1572.750
8.589173555374146,0,0,25166,1572.875
8.59316897392273,0,0,25170,1573.125
8.597167730331421,0,0,25169,1573.062
8.601258039474487,0,0,25164,1572.750
8.605196475982666,0,0,25163,1572.688
8.60920786857605,0,0,25166,1572.875
8.613205909729004,0,0,25170,1573.125
8.617204904556274,0,0,25169,1573.062
8.621201276779175,0,0,25165,1572.812
8.62520432472229,0,0,25164,1572.750
8.633278369903564,0,0,25170,1573.125
8.63472867012024,0,0,25170,1573.125
8.637255191802979,0,0,25169,1573.062
8.641202688217163,0,0,25165,1572.812
8.645198345184326,0,0,25163,1572.688
8.649198055267334,0,0,25166,1572.875
8.65319299697876,0,0,25170,1573.125
8.657192707061768,0,0,25169,1573.062
8.661195516586304,0,0,25165,1572.812
8.665194749832153,0,0,25163,1572.688
8.66920518875122,0,0,25166,1572.875
8.673205852508545,0,0,25169,1573.062
8.677205085754395,0,0,25169,1573.062
8.681206464767456,0,0,25165,1572.812
8.685202598571777,0,0,25163,1572.688
8.689231634140015,0,0,25166,1572.875
8.693200588226318,0,0,25170,1573.125
8.697192430496216,0,0,25169,1573.062
8.701202392578125,0,0,25165,1572.812
8.705161333084106,0,0,25164,1572.750
8.709158182144165,0,0,25165,1572.812
8.713156938552856,0,0,25169,1573.062
8.717157125473022,0,0,25170,1573.125
8.721156358718872,0,0,25165,1572.812
8.725154876708984,0,0,25163,1572.688
8.729166030883789,0,0,25166,1572.875
8.733168125152588,0,0,25169,1573.062
8.73716688156128,0,0,25169,1573.062
8.741163492202759,0,0,25166,1572.875
8.745166063308716,0,0,25163,1572.688
8.749173402786255,0,0,25165,1572.812
8.753165483474731,0,0,25169,1573.062
8.757164478302002,0,0,25169,1573.062
8.761166095733643,0,0,25165,1572.812
8.765166997909546,0,0,25164,1572.750
8.769168853759766,0,0,25165,1572.812
8.773163557052612,0,0,25169,1573.062
8.777164697647095,0,0,25169,1573.062
8.781163930892944,0,0,25166,1572.875
8.785166263580322,0,0,25164,1572.750
8.789167404174805,0,0,25165,1572.812
8.793169498443604,0,0,25169,1573.062
8.797165870666504,0,0,25169,1573.062
8.801255941390991,0,0,25166,1572.875
8.805207252502441,0,0,25163,1572.688
8.809210538864136,0,0,25165,1572.812
8.813204050064087,0,0,25169,1573.062
8.81720232963562,0,0,25169,1573.062
8.821195602416992,0,0,25166,1572.875
8.825199604034424,0,0,25164,1572.750
8.846771717071533,0,0,25165,1572.812
8.849254131317139,0,0,25165,1572.812
8.853210687637329,0,0,25169,1573.062
8.857203722000122,0,0,25170,1573.125
8.861200332641602,0,0,25167,1572.938
8.865200281143188,0,0,25164,1572.750
8.869210004806519,0,0,25164,1572.750
8.873202800750732,0,0,25169,1573.062
8.87720012664795,0,0,25169,1573.062
8.881202459335327,0,0,25164,1572.750
8.885191679000854,0,0,25164,1572.750
8.88920283317566,0,0,25169,1573.062
8.893202066421509,0,0,25170,1573.125
8.897202253341675,0,0,25167,1572.938
8.901348352432251,0,0,25164,1572.750
8.905166149139404,0,0,25164,1572.750
8.90917181968689,0,0,25168,1573.000
8.913166999816895,0,0,25169,1573.062
8.917163133621216,0,0,25167,1572.938
8.921160697937012,0,0,25163,1572.688
8.925155639648438,0,0,25164,1572.750
8.929176568984985,0,0,25168,1573.000
8.933166742324829,0,0,25169,1573.062
8.937165260314941,0,0,25167,1572.938
8.941163778305054,0,0,25163,1572.688
8.945163488388062,0,0,25164,1572.750
8.949157953262329,0,0,25168,1573.000
8.953153848648071,0,0,25170,1573.125
8.957155704498291,0,0,25167,1572.938
8.961162328720093,0,0,25164,1572.750
8.965163230895996,0,0,25164,1572.750
8.969164371490479,0,0,25168,1573.000
8.973161935806274,0,0,25170,1573.125
8.977161884307861,0,0,25167,1572.938
8.981159448623657,0,0,25164,1572.750
8.985162734985352,0,0,25164,1572.750
8.989161252975464,0,0,25168,1573.000
8.993154287338257,0,0,25170,1573.125
8.997152328491211,0,0,25167,1572.938
9.001260042190552,0,0,25164,1572.750
9.005205392837524,0,0,25164,1572.750
9.009192705154419,0,0,25168,1573.000
9.013286828994751,0,0,25169,1573.062
9.017195224761963,0,0,25168,1573.000
9.02119755744934,0,0,25164,1572.750
9.02519965171814,0,0,25164,1572.750
9.029202699661255,0,0,25167,1572.938
9.033199071884155,0,0,25170,1573.125
9.037197589874268,0,0,25168,1573.000
9.041192054748535,0,0,25164,1572.750
9.045188903808594,0,0,25164,1572.750
9.04921269416809,0,0,25168,1573.000
9.053200721740723,0,0,25170,1573.125
9.057199478149414,0,0,25168,1573.000
9.061193943023682,0,0,25163,1572.688
9.06519865989685,0,0,25163,1572.688
9.069206714630127,0,0,25167,1572.938
9.073197841644287,0,0,25170,1573.125
9.077196598052979,0,0,25169,1573.062
9.081200122833252,0,0,25164,1572.750
9.085196256637573,0,0,25164,1572.750
9.089203834533691,0,0,25167,1572.938
9.093197107315063,0,0,25170,1573.125
9.097196817398071,0,0,25169,1573.062
9.101201057434082,0,0,25164,1572.750
9.105161905288696,0,0,25164,1572.750
9.109164237976074,0,0,25167,1572.938
9.11315131187439,0,0,25170,1573.125
9.117150068283081,0,0,25169,1573.062
9.12116026878357,0,0,25164,1572.750
9.125161409378052,0,0,25164,1572.750
9.12916612625122,0,0,25167,1572.938
9.133161067962646,0,0,25170,1573.125
9.137159824371338,0,0,25169,1573.062
9.141160249710083,0,0,25165,1572.812
9.145160675048828,0,0,25164,1572.750
9.14916205406189,0,0,25166,1572.875
9.153163433074951,0,0,25170,1573.125
9.157161951065063,0,0,25169,1573.062
9.161164045333862,0,0,25165,1572.812
9.165158987045288,0,0,25164,1572.750
9.169165849685669,0,0,25166,1572.875
9.173162460327148,0,0,25170,1573.125
9.177160501480103,0,0,25169,1573.062
9.181158304214478,0,0,25165,1572.812
9.185160398483276,0,0,25164,1572.750
9.189161539077759,0,0,25166,1572.875
9.193151950836182,0,0,25169,1573.062
9.19714903831482,0,0,25169,1573.062
9.201247930526733,0,0,25164,1572.750
9.205203294754028,0,0,25164,1572.750
9.20920729637146,0,0,25166,1572.875
9.2131986618042,0,0,25170,1573.125
9.217198371887207,0,0,25169,1573.062
9.221194744110107,0,0,25165,1572.812
9.22519826889038,0,0,25164,1572.750
9.229204893112183,0,0,25166,1572.875
9.233195304870605,0,0,25170,1573.125
9.23719573020935,0,0,25169,1573.062
9.241198539733887,0,0,25165,1572.812
9.245198965072632,0,0,25164,1572.750
9.24920129776001,0,0,25166,1572.875
9.253195762634277,0,0,25170,1573.125
9.257195234298706,0,0,25170,1573.125
9.261194944381714,0,0,25165,1572.812
9.265197277069092,0,0,25164,1572.750
9.269201755523682,0,0,25166,1572.875
9.273197889328003,0,0,25170,1573.125
9.277200698852539,0,0,25169,1573.062
9.28119945526123,0,0,25166,1572.875
9.28519606590271,0,0,25164,1572.750
9.289201974868774,0,0,25166,1572.875
9.293198108673096,0,0,25169,1573.062
9.297195672988892,0,0,25169,1573.062
9.301228761672974,0,0,25165,1572.812
9.305197715759277,0,0,25163,1572.688
9.309198141098022,0,0,25166,1572.875
9.31319808959961,0,0,25170,1573.125
9.317198514938354,0,0,25169,1573.062
9.321200609207153,0,0,25165,1572.812
9.325195789337158,0,0,25164,1572.750
9.329201936721802,0,0,25165,1572.812
9.333197355270386,0,0,25169,1573.062
9.337196588516235,0,0,25170,1573.125
9.341192245483398,0,0,25165,1572.812
9.345191717147827,0,0,25164,1572.750
9.34920597076416,0,0,25165,1572.812
9.353198051452637,0,0,25169,1573.062
9.357194900512695,0,0,25170,1573.125
9.361197471618652,0,0,25166,1572.875
9.365194082260132,0,0,25164,1572.750
9.369203805923462,0,0,25165,1572.812
9.373193264007568,0,0,25169,1573.062
9.37719464302063,0,0,25169,1573.062
9.381196022033691,0,0,25166,1572.875
9.385194063186646,0,0,25164,1572.750
9.389200210571289,0,0,25165,1572.812
9.39319634437561,0,0,25170,1573.125
9.397197723388672,0,0,25169,1573.062
9.40122938156128,0,0,25166,1572.875
9.405183553695679,0,0,25164,1572.750
9.409195899963379,0,0,25165,1572.812
9.41319727897644,0,0,25170,1573.125
9.417198657989502,0,0,25169,1573.062
9.421191453933716,0,0,25166,1572.875
9.425194501876831,0,0,25164,1572.750
9.429202556610107,0,0,25164,1572.750
9.433197259902954,0,0,25169,1573.062
9.4371976852417,0,0,25170,1573.125
9.441190958023071,0,0,25167,1572.938
9.445184707641602,0,0,25164,1572.750
9.44919729232788,0,0,25165,1572.812
9.453196048736572,0,0,25169,1573.062
9.45719313621521,0,0,25170,1573.125
9.46119499206543,0,0,25167,1572.938
9.465196132659912,0,0,25164,1572.750
9.469200611114502,0,0,25165,1572.812
9.473193883895874,0,0,25170,1573.125
9.47719430923462,0,0,25167,1572.938
9.48119592666626,0,0,25163,1572.688
9.48519229888916,0,0,25165,1572.812
9.4891996383667,0,0,25169,1573.062
9.493196487426758,0,0,25170,1573.125
9.497194051742554,0,0,25167,1572.938
9.501229047775269,0,0,25164,1572.750
9.505192279815674,0,0,25164,1572.750
9.509199142456055,0,0,25168,1573.000
9.513354063034058,0,0,25170,1573.125
9.517205238342285,0,0,25168,1573.000
9.521199703216553,0,0,25164,1572.750
9.525195837020874,0,0,25164,1572.750
9.529199600219727,0,0,25169,1573.062
9.533193111419678,0,0,25170,1573.125
9.537193298339844,0,0,25168,1573.000
9.541192531585693,0,0,25164,1572.750
9.545190811157227,0,0,25164,1572.750
9.54919695854187,0,0,25169,1573.062
9.553193807601929,0,0,25170,1573.125
9.557193994522095,0,0,25168,1573.000
9.561195850372314,0,0,25164,1572.750
9.565194845199585,0,0,25164,1572.750
9.569202899932861,0,0,25168,1573.000
9.57319188117981,0,0,25170,1573.125
9.57719349861145,0,0,25168,1573.000
9.581193208694458,0,0,25164,1572.750
9.585193395614624,0,0,25164,1572.750
9.589197635650635,0,0,25168,1573.000
9.593192100524902,0,0,25170,1573.125
9.597193241119385,0,0,25169,1573.062
9.601285457611084,0,0,25164,1572.750
9.605157613754272,0,0,25164,1572.750
9.609161138534546,0,0,25168,1573.000
9.613155364990234,0,0,25170,1573.125
9.617154836654663,0,0,25168,1573.000
9.621150493621826,0,0,25164,1572.750
9.625142574310303,0,0,25164,1572.750
9.632812023162842,0,0,25170,1573.125
9.634208917617798,0,0,25170,1573.125
9.637201070785522,0,0,25168,1573.000
9.641151666641235,0,0,25164,1572.750
9.645143032073975,0,0,25164,1572.750
9.649148225784302,0,0,25168,1573.000
9.653148412704468,0,0,25170,1573.125
9.657144546508789,0,0,25168,1573.000
9.661144495010376,0,0,25164,1572.750
9.665144443511963,0,0,25164,1572.750
9.669163465499878,0,0,25168,1573.000
9.673169612884521,0,0,25170,1573.125
9.677156448364258,0,0,25169,1573.062
9.681153774261475,0,0,25164,1572.750
9.685145854949951,0,0,25164,1572.750
9.689151287078857,0,0,25167,1572.938
9.693155527114868,0,0,25170,1573.125
9.69715142250061,0,0,25169,1573.062
9.701164484024048,0,0,25164,1572.750
9.705145359039307,0,0,25164,1572.750
9.709156036376953,0,0,25168,1573.000
9.713155269622803,0,0,25170,1573.125
9.717154026031494,0,0,25169,1573.062
9.721153736114502,0,0,25165,1572.812
9.72514533996582,0,0,25164,1572.750
9.72915530204773,0,0,25167,1572.938
9.733154296875,0,0,25170,1573.125
9.737154245376587,0,0,25170,1573.125
9.741154670715332,0,0,25165,1572.812
9.745155811309814,0,0,25164,1572.750
9.749159336090088,0,0,25167,1572.938
9.753155946731567,0,0,25170,1573.125
9.757155895233154,0,0,25169,1573.062
9.761157989501953,0,0,25165,1572.812
9.76515531539917,0,0,25164,1572.750
9.769158601760864,0,0,25166,1572.875
9.77317190170288,0,0,25170,1573.125
9.777212142944336,0,0,25170,1573.125
9.78130292892456,0,0,25165,1572.812
9.785285949707031,0,0,25164,1572.750
9.789169788360596,0,0,25166,1572.875
9.793147087097168,0,0,25170,1573.125
9.79714560508728,0,0,25170,1573.125
9.801342248916626,0,0,25165,1572.812
9.805215835571289,0,0,25164,1572.750
9.809195041656494,0,0,25166,1572.875
9.813191413879395,0,0,25170,1573.125
9.817189455032349,0,0,25169,1573.062
9.821201086044312,0,0,25165,1572.812
9.825185537338257,0,0,25164,1572.750
9.829195022583008,0,0,25166,1572.875
9.833189964294434,0,0,25170,1573.125
9.837190628051758,0,0,25169,1573.062
9.841192722320557,0,0,25165,1572.812
9.851725578308105,0,0,25170,1573.125
9.853233098983765,0,0,25170,1573.125
9.857198715209961,0,0,25170,1573.125
9.861194610595703,0,0,25166,1572.875
9.86518907546997,0,0,25164,1572.750
9.869200944900513,0,0,25166,1572.875
9.873191356658936,0,0,25171,1573.188
9.877190351486206,0,0,25170,1573.125
9.881186962127686,0,0,25166,1572.875
9.885177850723267,0,0,25164,1572.750
9.889195203781128,0,0,25166,1572.875
9.893191576004028,0,0,25170,1573.125
9.897188901901245,0,0,25170,1573.125
9.90125060081482,0,0,25166,1572.875
9.905147552490234,0,0,25164,1572.750
9.909152269363403,0,0,25166,1572.875
9.913152933120728,0,0,25170,1573.125
9.917153596878052,0,0,25170,1573.125
9.921151161193848,0,0,25166,1572.875
9.925150156021118,0,0,25163,1572.688
9.92915940284729,0,0,25166,1572.875
9.933154344558716,0,0,25170,1573.125
9.937150716781616,0,0,25170,1573.125
9.941143989562988,0,0,25166,1572.875
9.9451425075531,0,0,25164,1572.750
9.949151992797852,0,0,25165,1572.812
9.953152179718018,0,0,25170,1573.125
9.957149505615234,0,0,25170,1573.125
9.961152791976929,0,0,25166,1572.875
9.965152740478516,0,0,25164,1572.750
9.96915888786316,0,0,25165,1572.812
9.973150730133057,0,0,25170,1573.125
9.977147817611694,0,0,25170,1573.125
9.981149673461914,0,0,25166,1572.875
9.985148668289185,0,0,25164,1572.750
9.989153623580933,0,0,25165,1572.812
9.993149757385254,0,0,25170,1573.125
9.997150897979736,0,0,25170,1573.125
10.00123929977417,0,0,25166,1572.875
10.005192518234253,0,0,25163,1572.688
10.009191751480103,0,0,25165,1572.812
10.013184785842896,0,0,25169,1573.062
10.017202615737915,0,0,25170,1573.125
10.021188020706177,0,0,25167,1572.938
10.02518606185913,0,0,25164,1572.750
10.029188871383667,0,0,25165,1572.812
10.033185005187988,0,0,25169,1573.062
10.037185430526733,0,0,25170,1573.125
10.041183471679688,0,0,25167,1572.938
10.045185565948486,0,0,25164,1572.750
10.049187421798706,0,0,25165,1572.812
10.053177118301392,0,0,25169,1573.062
10.057172298431396,0,0,25170,1573.125
10.061185359954834,0,0,25164,1572.750
10.065186262130737,0,0,25164,1572.750
10.069193124771118,0,0,25169,1573.062
10.073187351226807,0,0,25170,1573.125
10.077186822891235,0,0,25167,1572.938
10.081188678741455,0,0,25163,1572.688
10.08518385887146,0,0,25164,1572.750
10.089192628860474,0,0,25169,1573.062
10.093188285827637,0,0,25170,1573.125
10.097184658050537,0,0,25168,1573.000
10.101241111755371,0,0,25164,1572.750
10.105149745941162,0,0,25164,1572.750
10.109153270721436,0,0,25168,1573.000
10.113148212432861,0,0,25170,1573.125
10.11714768409729,0,0,25168,1573.000
10.121150255203247,0,0,25164,1572.750
10.125145196914673,0,0,25164,1572.750
10.129148483276367,0,0,25168,1573.000
10.133140325546265,0,0,25170,1573.125
10.13713812828064,0,0,25168,1573.000
10.141148328781128,0,0,25164,1572.750
10.145145177841187,0,0,25164,1572.750
10.149150609970093,0,0,25168,1573.000
10.153151750564575,0,0,25170,1573.125
10.157148122787476,0,0,25168,1573.000
10.161149501800537,0,0,25163,1572.688
10.16514801979065,0,0,25164,1572.750
10.169154405593872,0,0,25168,1573.000
10.173146963119507,0,0,25170,1573.125
10.177146911621094,0,0,25168,1573.000
10.181148767471313,0,0,25164,1572.750
10.1851487159729,0,0,25164,1572.750
10.189144611358643,0,0,25168,1573.000
10.193138360977173,0,0,25170,1573.125
10.197137832641602,0,0,25168,1573.000
10.20123553276062,0,0,25164,1572.750
10.205188512802124,0,0,25164,1572.750
10.20919132232666,0,0,25168,1573.000
10.213184118270874,0,0,25170,1573.125
10.217185497283936,0,0,25168,1573.000
10.221184253692627,0,0,25164,1572.750
10.225183963775635,0,0,25164,1572.750
10.229187965393066,0,0,25168,1573.000
10.233183860778809,0,0,25170,1573.125
10.237186193466187,0,0,25168,1573.000
10.241188526153564,0,0,25164,1572.750
10.245181798934937,0,0,25164,1572.750
10.24919080734253,0,0,25167,1572.938
10.253185987472534,0,0,25170,1573.125
10.257184028625488,0,0,25169,1573.062
10.261181592941284,0,0,25164,1572.750
10.26518177986145,0,0,25164,1572.750
10.269190311431885,0,0,25167,1572.938
10.27318525314331,0,0,25170,1573.125
10.277182579040527,0,0,25169,1573.062
10.281185865402222,0,0,25165,1572.812
10.285184621810913,0,0,25164,1572.750
10.28919267654419,0,0,25167,1572.938
10.29318356513977,0,0,25170,1573.125
10.297186136245728,0,0,25169,1573.062
10.301187515258789,0,0,25164,1572.750
10.305150032043457,0,0,25164,1572.750
10.309154033660889,0,0,25167,1572.938
10.313148260116577,0,0,25170,1573.125
10.317142486572266,0,0,25169,1573.062
10.321148157119751,0,0,25164,1572.750
10.325146913528442,0,0,25164,1572.750
10.329150199890137,0,0,25166,1572.875
10.333147287368774,0,0,25170,1573.125
10.337145328521729,0,0,25170,1573.125
10.341144323348999,0,0,25165,1572.812
10.34514570236206,0,0,25164,1572.750
10.349152565002441,0,0,25167,1572.938
10.353146314620972,0,0,25170,1573.125
10.357144594192505,0,0,25169,1573.062
10.361146688461304,0,0,25165,1572.812
10.36514401435852,0,0,25164,1572.750
10.369152307510376,0,0,25166,1572.875
10.373149871826172,0,0,25170,1573.125
10.377158164978027,0,0,25170,1573.125
10.381142377853394,0,0,25165,1572.812
10.385133981704712,0,0,25164,1572.750
10.389147758483887,0,0,25166,1572.875
10.39314579963684,0,0,25170,1573.125
10.397146940231323,0,0,25170,1573.125
10.401326656341553,0,0,25165,1572.812
10.405199527740479,0,0,25164,1572.750
10.409184217453003,0,0,25166,1572.875
10.413366317749023,0,0,25170,1573.125
10.417304754257202,0,0,25170,1573.125
10.421194553375244,0,0,25165,1572.812
10.425175905227661,0,0,25164,1572.750
10.429190158843994,0,0,25166,1572.875
10.433196306228638,0,0,25170,1573.125
10.437185049057007,0,0,25170,1573.125
10.44118332862854,0,0,25165,1572.812
10.445174217224121,0,0,25164,1572.750
10.449216842651367,0,0,25166,1572.875
10.453229904174805,0,0,25170,1573.125
10.457189083099365,0,0,25169,1573.062
10.461186647415161,0,0,25165,1572.812
10.46518611907959,0,0,25163,1572.688
10.469234466552734,0,0,25166,1572.875
10.473181009292603,0,0,25170,1573.125
10.477174520492554,0,0,25169,1573.062
10.481183528900146,0,0,25166,1572.875
10.48518419265747,0,0,25163,1572.688
10.489185333251953,0,0,25165,1572.812
10.493185758590698,0,0,25170,1573.125
10.497184753417969,0,0,25170,1573.125
10.501279830932617,0,0,25165,1572.812
10.505141258239746,0,0,25164,1572.750
10.509147882461548,0,0,25165,1572.812
10.513144731521606,0,0,25170,1573.125
10.517155170440674,0,0,25170,1573.125
10.52115273475647,0,0,25166,1572.875
10.525145053863525,0,0,25163,1572.688
10.529151439666748,0,0,25165,1572.812
10.533145427703857,0,0,25170,1573.125
10.53714370727539,0,0,25170,1573.125
10.541145324707031,0,0,25166,1572.875
10.545143842697144,0,0,25163,1572.688
10.549149751663208,0,0,25165,1572.812
10.55314326286316,0,0,25169,1573.062
10.5571448802948,0,0,25170,1573.125
10.561147212982178,0,0,25166,1572.875
10.565142631530762,0,0,25163,1572.688
10.569151163101196,0,0,25164,1572.750
10.573145627975464,0,0,25169,1573.062
10.57714319229126,0,0,25170,1573.125
10.58114242553711,0,0,25166,1572.875
10.585145950317383,0,0,25163,1572.688
10.589147329330444,0,0,25165,1572.812
10.593143224716187,0,0,25169,1573.062
10.597145795822144,0,0,25170,1573.125
10.601244688034058,0,0,25166,1572.875
10.605185508728027,0,0,25163,1572.688
10.609190702438354,0,0,25165,1572.812
10.613180160522461,0,0,25169,1573.062
10.617180585861206,0,0,25170,1573.125
10.621174573898315,0,0,25167,1572.938
10.625176906585693,0,0,25164,1572.750
10.633265256881714,0,0,25169,1573.062
10.634727478027344,0,0,25170,1573.125
10.63722848892212,0,0,25170,1573.125
10.641175985336304,0,0,25167,1572.938
10.645167827606201,0,0,25164,1572.750
10.649176120758057,0,0,25168,1573.000
10.653175115585327,0,0,25170,1573.125
10.657167911529541,0,0,25167,1572.938
10.661168813705444,0,0,25164,1572.750
10.665165424346924,0,0,25164,1572.750
10.669183492660522,0,0,25168,1573.000
10.673178672790527,0,0,25170,1573.125
10.677176237106323,0,0,25167,1572.938
10.681179761886597,0,0,25163,1572.688
10.685179471969604,0,0,25164,1572.750
10.68934178352356,0,0,25169,1573.062
10.693169593811035,0,0,25170,1573.125
10.697179317474365,0,0,25167,1572.938
10.701278686523438,0,0,25163,1572.688
10.705335855484009,0,0,25164,1572.750
10.709165811538696,0,0,25168,1573.000
10.713132858276367,0,0,25170,1573.125
10.717134237289429,0,0,25168,1573.000
10.721137523651123,0,0,25163,1572.688
10.725133657455444,0,0,25164,1572.750
10.729127407073975,0,0,25168,1573.000
10.733145713806152,0,0,25169,1573.062
10.73713207244873,0,0,25168,1573.000
10.7411367893219,0,0,25164,1572.750
10.7451331615448,0,0,25163,1572.688
10.749140501022339,0,0,25168,1573.000
10.753212928771973,0,0,25169,1573.062
10.75715184211731,0,0,25167,1572.938
10.762362480163574,0,0,25163,1572.688
