Timestamp,Processed_Voltage
0.0,-0.44556282322412516
0.004,3.1130225421700453
0.008,5.589306040582615
0.012,6.29014249357588
0.016,5.411345344000954
0.02,4.107013472259718
0.024,3.6369497404944906
0.028,4.225118657422463
0.032,4.9346781108606494
0.036,4.831015066049367
0.04,4.084863758088705
0.044,3.6605860703821542
0.048,4.018468707646233
0.052,4.536726485772615
0.056,4.393754465078815
0.06,3.6968818947833495
0.064,3.3249283047739095
0.068,3.7088917605874436
0.072,4.227336672060966
0.076,4.054913392013221
0.08,3.306750974422414
0.084,2.900793426320547
0.088,3.3094713663830495
0.092,3.9056701779554697
0.096,3.810095065918026
0.1,3.090846370664024
0.104,2.670249093842897
0.108,3.0574071230551043
0.112,3.641894342731134
0.116,3.5267936498744237
0.12,2.7677540159273035
0.124,2.3135170674673105
0.128,2.7138051014691076
0.132,3.357868058527115
0.136,3.295693801165772
0.14,2.531272484399015
0.144,2.0220783245155993
0.148,2.37905811809945
0.152,3.037157636355687
0.156,3.02750074091895
0.16,2.296934276685113
0.164,1.7740553223297102
0.168,2.0945534917101853
0.172,2.730987139821048
0.176,2.7177527717041627
0.18,1.978640481168041
0.184,1.438380998507168
0.188,1.762230237020822
0.192,2.4456846822149894
0.196,2.50004376238293
0.2,1.798471214570482
0.204,1.2438958169740317
0.208,1.5308393214509275
0.212,2.195909282633762
0.216,2.256185254048058
0.22,1.560966698284035
0.224,1.0040609899220672
0.228,1.3016117674239474
0.232,2.0052884400492736
0.236,2.103668901751376
0.24,1.3962423448359103
0.244,0.7675048745080432
0.248,0.9877998970542883
0.252,1.6753405822634173
0.256,1.8297860196153612
0.26,1.2012392512987193
0.264,0.6227833253808962
0.268,0.8580038081952194
0.272,1.5472546427926448
0.276,1.6978654812542615
0.28,1.0462701150988123
0.284,0.42403831261009683
0.288,0.6232075237670467
0.292,1.312717445537663
0.296,1.4907054278465504
0.3,0.8564376221668326
0.304,0.22538086733214563
0.308,0.4175848931815031
0.312,1.1372447823522382
0.316,1.3744722530884637
0.32,0.7805312983564469
0.324,0.13876777131926918
0.328,0.29087059415116684
0.332,0.9881921665846173
0.336,1.2365431925450252
0.34,0.6589364328716006
0.344,0.011097531024498451
0.348,0.14676060984134198
0.352,0.8501252014803814
0.356,1.1316402456382841
0.36,0.5802400425417745
0.364,-0.07787404668434905
0.368,0.024288022712448586
0.372,0.708492108228352
0.376,0.9982069550046521
0.38,0.4581053227684387
0.384,-0.2093345119049991
0.388,-0.12736173559301214
0.392,0.5512410125724305
0.396,0.8504596451728286
0.4,0.30834309583090275
0.404,-0.38378124315318357
0.408,-0.31793407601934703
0.412,0.39367316761093835
0.416,0.7691712725643715
0.42,0.2898745820355746
0.424,-0.40121965657270414
0.428,-0.3831539610839685
0.432,0.28823419211834206
0.436,0.6661307776220603
0.44,0.21400894733533124
0.444,-0.46203590074147505
0.448,-0.449593824083717
0.452,0.2150332501532508
0.456,0.5945309219138003
0.46,0.1362086113809825
0.464,-0.5659325913110577
0.468,-0.5788802679569359
0.472,0.09403806001560079
0.476,0.5143393481629441
0.48,0.08716873784754044
0.484,-0.627244486789033
0.488,-0.6768130637245592
0.492,-0.013114270140759282
0.496,0.44792616445446926
0.5,0.07858929278434057
0.504,-0.6086792838832887
0.508,-0.6711803308548893
0.512,-0.031392217312448976
0.516,0.41655417179156096
0.52,0.03369087537447289
0.524,-0.6848980175735798
0.528,-0.7839398337243918
0.532,-0.1538091997168401
0.536,0.3191164340531754
0.54,-0.03435214286705146
0.544,-0.7482554476845705
0.548,-0.8572848505351267
0.552,-0.22092982326428798
0.556,0.2754648734233957
0.56,-0.073822042778607
0.564,-0.820024942413296
0.568,-0.9481941362501144
0.572,-0.24601238452536434
0.576,0.38327909328573884
0.58,0.07928467335791527
0.584,-0.8794234493127903
0.588,-1.4350037201357975
0.592,-1.0027348752387983
0.596,0.011861179244721392
0.6,0.8837225990129763
0.604,1.2926347370565423
0.608,1.223206081547167
0.612,0.6143238796876676
0.616,-0.4258038175495692
0.62,-1.2678754474651968
0.624,-1.1979702660978098
0.628,-0.3296580465384506
0.632,0.3354640809764436
0.636,0.037804087471938606
0.64,-0.7963255421183371
0.644,-1.0927630856517567
0.648,-0.5123032078670727
0.652,0.13194276043316377
0.656,-0.02178326826692692
0.66,-0.7382952087953896
0.664,-1.0312768864316189
0.668,-0.5152061212265129
0.672,0.07881816206923761
0.676,-0.08369663107120856
0.68,-0.792049873298343
0.684,-1.0779279496792347
0.688,-0.5423442613167203
0.692,0.09583345513660062
0.696,-0.019877810499775193
0.7,-0.7165441090954766
0.704,-1.0342082503795729
0.708,-0.5437359106543626
0.712,0.06610200133286526
0.716,-0.0628912082130818
0.72,-0.7741662176412397
0.724,-1.1021137511487744
0.728,-0.5913012905456682
0.732,0.0748124156886787
0.736,3.2730920804911064e-06
0.74,-0.7050415764766055
0.744,-1.0752509215296449
0.748,-0.6086012418189108
0.752,0.050677296409640575
0.756,-0.004524434793747685
0.76,-0.7031685939186023
0.764,-1.0938397285163817
0.768,-0.6454887441438187
0.772,0.02880412331414362
0.776,0.012395671071229703
0.78,-0.6634392627434257
0.784,-1.0682814864532117
0.788,-0.6491912909795414
0.792,0.015291898414900399
0.796,0.012115822692650784
0.8,-0.6553100087595761
0.804,-1.0750973423942485
0.808,-0.6774809452383961
0.812,-0.012061611008952082
0.816,0.009401445102581125
0.82,-0.6383107492108515
0.824,-1.0649158756422052
0.828,-0.6899246196652467
0.832,-0.03862057187922131
0.836,-0.018454932518327888
0.84,-0.6712490640503274
0.844,-1.1135681046612493
0.848,-0.7464610472420564
0.852,-0.07577745706429802
0.856,-0.019465703391956923
0.86,-0.651905422204073
0.864,-1.1048146218987107
0.868,-0.7583231814375683
0.872,-0.08983162238823825
0.876,-0.019443497573877887
0.88,-0.6498993798988372
0.884,-1.1255651015320833
0.888,-0.8015521800472438
0.892,-0.12317024417513428
0.896,-0.015867972416205193
0.9,-0.6232994300564731
0.904,-1.1170615724106314
0.908,-0.8309611543639558
0.912,-0.16454719908015253
0.916,-0.025567997009132835
0.92,-0.5843868361335777
0.924,-1.0490799954044552
0.928,-0.763464677182594
0.932,-0.11565449499154519
0.936,-0.007453829877249638
0.94,-0.6107513656080614
0.944,-1.117738710099927
0.948,-0.8354935994667363
0.952,-0.13714161690560675
0.956,0.029643772297687762
0.96,-0.5805415131175892
0.964,-1.1691400374650571
0.968,-0.9443464404227092
0.972,-0.15909484573435012
0.976,0.2214851907810122
0.98,-0.26296641507321156
0.984,-1.067593421725557
0.988,-1.397434675321079
0.992,-1.089431843681176
0.996,-0.5278000594525584
1.0,-0.00488698196755266
1.004,0.414853892109884
1.008,0.5347056341328902
1.012,0.06617385992300856
1.016,-0.8089179605512428
1.02,-1.3301937315817933
1.024,-0.9679721853233707
1.028,-0.16166800815209992
1.032,0.1276657192367486
1.036,-0.4013213250679304
1.04,-1.0144936149772927
1.044,-0.9085821375001805
1.048,-0.2589800677750082
1.052,0.043303972116128055
1.056,-0.39679324651284537
1.06,-0.955687174393837
1.064,-0.8552411315795497
1.068,-0.22997163090545616
1.072,0.056035141351088655
1.076,-0.4085123260593568
1.08,-1.009974320523531
1.084,-0.9278799599577283
1.088,-0.24079038280787002
1.092,0.16495513719771726
1.096,-0.2485219849486159
1.1,-0.9890708083331823
1.104,-1.1826161296264983
1.108,-0.6213217807091782
1.112,0.15499288690359933
1.116,0.6893515965977707
1.12,1.085035690735928
1.124,1.5262978111295193
1.128,1.6976061400364026
1.132,1.084143907546292
1.136,-0.18867120922425
1.14,-1.1959867255471668
1.144,-1.1447315920768715
1.148,-0.3224470446033237
1.152,0.1919669136541596
1.156,-0.1981899297723924
1.16,-0.9172317356725926
1.164,-0.9954298565867522
1.168,-0.32246863781516427
1.172,0.22857416205722528
1.176,-0.06787245083852024
1.18,-0.8852228831964276
1.184,-1.276304899249523
1.188,-0.7837999766120953
1.192,0.1847593596629572
1.196,0.9814129217645923
1.2,1.316579982265209
1.204,1.1617798379129187
1.208,0.49464240848443747
1.212,-0.4991619858579075
1.216,-1.2044292942624604
1.22,-1.0440538624870155
1.224,-0.23284838036955194
1.228,0.305538196262573
1.232,-0.017509965277974084
1.236,-0.7320849457980182
1.24,-0.9088370640466137
1.244,-0.35389277618964443
1.248,0.1637899952860071
1.252,-0.045437537235935924
1.256,-0.6751585972725967
1.26,-0.8563264694178622
1.264,-0.34195460123799104
1.268,0.16604575477181355
1.272,-0.01776047711353599
1.276,-0.628946576656334
1.28,-0.8233304739652113
1.284,-0.3367592473476352
1.288,0.155299767380157
1.292,-0.032724534923548765
1.296,-0.6548124997571151
1.3,-0.8698691039199477
1.304,-0.3943126819422282
1.308,0.1086828750474792
1.312,-0.06345312363066982
1.316,-0.6907107983618993
1.32,-0.9298945047879403
1.324,-0.46504960921533967
1.328,0.06434714206704417
1.332,-0.06001510613983064
1.336,-0.6562694198411074
1.34,-0.8988157402338488
1.344,-0.4537461642468329
1.348,0.06436466842001609
1.352,-0.06217210985563573
1.356,-0.6679804541057297
1.36,-0.9295083675801648
1.364,-0.4923160614179394
1.368,0.043421983939062936
1.372,-0.0564656514434887
1.376,-0.6569056693376445
1.38,-0.9393051574830849
1.384,-0.51997261487235
1.388,0.029005799333791094
1.392,-0.0345398760346247
1.396,-0.6095601820371807
1.4,-0.8967069888626835
1.404,-0.4982212264593297
1.408,0.036528241438194366
1.412,-0.033873258056979744
1.416,-0.6238970870548031
1.42,-0.9351530466412896
1.424,-0.5474370950738272
1.428,0.007342242770526141
1.432,-0.026435363765907917
1.436,-0.5956790416950671
1.44,-0.915297175572153
1.444,-0.5467155569205934
1.448,0.0010154988216789125
1.452,-0.028968608617688584
1.456,-0.6009151065461279
1.46,-0.9327517515836051
1.464,-0.5672080160728372
1.468,-0.0007557435099148227
1.472,-0.0074587076163807955
1.476,-0.5812637989612355
1.48,-0.943100330061639
1.484,-0.603075344457084
1.488,-0.025772553089661247
1.492,0.008786609502214502
1.496,-0.5288722879049205
1.5,-0.8834896902370807
1.504,-0.5558234075865813
1.508,0.010244121276396718
1.512,0.03619170512473082
1.516,-0.5213159064598055
1.52,-0.9061667207929816
1.524,-0.5945708610903966
1.528,-0.011873902939219663
1.532,0.047626822243183875
1.536,-0.4942674198068527
1.54,-0.8935795859329599
1.544,-0.6023283539483789
1.548,-0.01803165070270802
1.552,0.06100394950909914
1.556,-0.4711336845959545
1.56,-0.8827497849015595
1.564,-0.6059516385207901
1.568,-0.013657818912309147
1.572,0.09141517051949373
1.576,-0.42445835096884876
1.58,-0.8444266805942272
1.584,-0.5851280195435932
1.588,0.0021791339492682154
1.592,0.11224261552229342
1.596,-0.40878960258454367
1.6,-0.8476007803077489
1.604,-0.595686135798079
1.608,0.01868444797912929
1.612,0.17646509705580093
1.616,-0.31695740017737184
1.62,-0.7701321943405126
1.624,-0.5524333834269696
1.628,0.04665085937844796
1.632,0.21895038671456848
1.636,-0.25387196470786677
1.64,-0.7044523922483468
1.644,-0.5002468665011988
1.648,0.08391171724870422
1.652,0.24044963909164127
1.656,-0.2601783768654988
1.66,-0.7456772980459483
1.664,-0.5530890509957767
1.668,0.06858726143003747
1.672,0.2986267604597282
1.676,-0.13802422214974422
1.68,-0.6045810717642117
1.684,-0.43547776930286847
1.688,0.14485289875667196
1.692,0.3294029331074395
1.696,-0.15765998049448102
1.7,-0.6694570094504334
1.704,-0.510481524014183
1.708,0.1138181608457242
1.712,0.371349439053009
1.716,-0.06839696429395974
1.72,-0.5894449603600767
1.724,-0.47328644816145926
1.728,0.12118553600596914
1.732,0.37870709043677475
1.736,-0.05461445305410148
1.74,-0.5857145489894927
1.744,-0.4860566914289036
1.748,0.10762918139177213
1.752,0.37379011105438464
1.756,-0.07013515074247387
1.76,-0.6284373055773571
1.764,-0.5163049428933456
1.768,0.17333446245757814
1.772,0.5545302474991686
1.776,0.07868314519622259
1.78,-0.7626506943067021
1.784,-1.0279724096373848
1.788,-0.3849455663762367
1.792,0.6662638268126221
1.796,1.4669637303089866
1.8,1.7364913921245346
1.804,1.4516508203170326
1.808,0.6459536074659471
1.812,-0.38976677237303453
1.816,-1.0004236598386582
1.82,-0.7118717099429698
1.824,0.11552329802871548
1.828,0.544149536058607
1.832,0.12184812591337035
1.836,-0.5668563842053793
1.84,-0.6416487031752538
1.844,-0.047331969396895976
1.848,0.4062970422632438
1.852,0.13499645664042836
1.856,-0.45513901114739247
1.86,-0.542944903104872
1.864,-0.014434514282246185
1.868,0.3919592398763478
1.872,0.1050165671079866
1.876,-0.4924489813452295
1.88,-0.5847979005046622
1.884,-0.03990875105905773
1.888,0.40612417062220724
1.892,0.15084992490260726
1.896,-0.4526288105865774
1.9,-0.5763684154534056
1.904,-0.046247057712980134
1.908,0.421011092480595
1.912,0.1950281977985067
1.916,-0.4114121282754611
1.92,-0.5741207622616454
1.924,-0.08434692263417501
1.928,0.37142488941317614
1.932,0.15882933849094102
1.936,-0.4315381389584101
1.94,-0.5855275209667897
1.944,-0.0930919041198064
1.948,0.3481893394088679
1.952,0.08440858400560965
1.956,-0.5769657060875292
1.96,-0.7445180310818538
1.964,-0.13411584801164647
1.968,0.5091760797066912
1.972,0.3264238579903026
1.976,-0.5798114879872251
1.98,-1.2419435694236562
1.984,-0.8829362472115878
1.988,0.3867187259555446
1.992,1.8575445398427293
1.996,2.842882988449407
2.0,2.9205933498735255
2.004,1.9688415655267912
2.008,0.36959722406404144
2.012,-0.9554092410501405
2.016,-1.1740490603692841
2.02,-0.39012621512666146
2.024,0.37993422425889195
2.028,0.2911646001959495
2.032,-0.4070444345243567
2.036,-0.7671064108419522
2.04,-0.3740207281110255
2.044,0.16584045502341754
2.048,0.086195039079869
2.052,-0.502174691507041
2.056,-0.7858165690403108
2.06,-0.373792502119073
2.064,0.16744993906414904
2.068,0.093663772559089
2.072,-0.49413365610971427
2.076,-0.7827547180179137
2.08,-0.35744630540956013
2.084,0.22003163923329475
2.088,0.1531284363238256
2.092,-0.5239677068375705
2.096,-0.9750553257250716
2.1,-0.6197567511410664
2.104,0.19186492076706257
2.108,0.7140445984467855
2.112,0.7376795566288145
2.116,0.6714086792084021
2.12,0.7819535105942921
2.124,0.7494646974545912
2.128,0.18781653060259199
2.132,-0.627022438996487
2.136,-0.933564221547263
2.14,-0.4435635134031738
2.144,0.20482559933794334
2.148,0.20118357691862945
2.152,-0.41040929374902946
2.156,-0.803481873322358
2.16,-0.47100115316442803
2.164,0.10770411774354162
2.168,0.12889954005416926
2.172,-0.4429571493336322
2.176,-0.8326382765137039
2.18,-0.5139786042878994
2.184,0.07473507745393392
2.188,0.1332752906561761
2.192,-0.40716941043535976
2.196,-0.7948585715799026
2.2,-0.49138102280365215
2.204,0.08924758398370358
2.208,0.1487637930734276
2.212,-0.398723619047611
2.216,-0.8046185506308228
2.22,-0.5070725002802552
2.224,0.10090183800177188
2.228,0.2069914636147228
2.232,-0.3136769032582506
2.236,-0.7327771259428025
2.24,-0.46747334412162383
2.244,0.12463381047604204
2.248,0.24013309230920055
2.252,-0.2673774713123852
2.256,-0.6886683747029384
2.26,-0.43519076537909035
2.264,0.150360646004291
2.268,0.2628441830466693
2.272,-0.25870547229337454
2.276,-0.7056597108608957
2.28,-0.46898650423158156
2.284,0.12333976031201009
2.288,0.25213658192361654
2.292,-0.2695096569994541
2.296,-0.7340908232464289
2.3,-0.5031494459961995
2.304,0.11850374247785851
2.308,0.2954473178103894
2.312,-0.19993096616574077
2.316,-0.6786085569298221
2.32,-0.47767541667122737
2.324,0.1350980209363582
2.328,0.33201744907928893
2.332,-0.13798665467175572
2.336,-0.6060869681710822
2.34,-0.4061833233183212
2.344,0.20078522681605002
2.348,0.3740729649096902
2.352,-0.15172833402064992
2.356,-0.6795989018857257
2.36,-0.4739140222015987
2.364,0.23808341419385576
2.368,0.5322489458995541
2.372,-0.025718046015637108
2.376,-0.8205102217957652
2.38,-0.9299750878917852
2.384,-0.1525518599025878
2.388,0.9240496749465126
2.392,1.6626453220997393
2.396,1.8357624287074412
2.4,1.4387793671808622
2.404,0.5291193860573525
2.408,-0.5359246526881202
2.412,-1.0641532164063219
2.416,-0.657108519902037
2.42,0.19650409219624057
2.424,0.5329393995621178
2.428,0.0160771261146059
2.432,-0.65717342051559
2.436,-0.6433990915253086
2.44,-0.021797774174188336
2.444,0.3493606504093294
2.448,-0.008669415643108767
2.452,-0.5713944241786798
2.456,-0.5463764325625299
2.46,0.04269259918140861
2.464,0.39468335436307606
2.468,0.029805497080392054
2.472,-0.5546053339884415
2.476,-0.5635788782485628
2.48,0.011554854093578466
2.484,0.38459773879228437
2.488,0.050198836852896035
2.492,-0.5275635649235407
2.496,-0.5539607526913689
2.5,0.0052973954042178535
2.504,0.3747177790682526
2.508,0.03126820338424421
2.512,-0.5738255112854401
2.516,-0.6242362425266351
2.52,-0.05169704915954615
2.524,0.36633585175196615
2.528,0.062032715405619505
2.532,-0.5508463133844363
2.536,-0.6414071137375122
2.54,-0.09397655814175539
2.544,0.33620094231344166
2.548,0.0566461928934755
2.552,-0.5508239524743966
2.556,-0.6501238752913358
2.56,-0.09373538786501898
2.564,0.3725764933906689
2.568,0.12448525484941769
2.572,-0.4907494111933697
2.576,-0.6292291051930458
2.58,-0.10253252417725268
2.584,0.36617084616083734
2.588,0.13206663700884155
2.592,-0.48783141172435457
2.596,-0.6460085150840097
2.6,-0.12300264827883226
2.604,0.36965083241544183
2.608,0.1576856776545102
2.612,-0.47724505998646916
2.616,-0.6819086313539734
2.62,-0.19270024150108872
2.624,0.3119115267279191
2.628,0.14457186986458495
2.632,-0.4531887506026226
2.636,-0.6504972490948057
2.64,-0.1728187593959175
2.644,0.32021275777216246
2.648,0.14196632689927682
2.652,-0.47565970215411557
2.656,-0.6970970042796554
2.66,-0.22823613059778988
2.664,0.2780493124973428
2.668,0.11402248089246293
2.672,-0.5130546433070693
2.676,-0.7615368631888793
2.68,-0.30407433814512264
2.684,0.22646073080688087
2.688,0.10314826300878593
2.692,-0.5027893917647468
2.696,-0.7610965974875882
2.7,-0.32357468991764643
2.704,0.19722250047474219
2.708,0.0682902244456255
2.712,-0.5554623710367141
2.716,-0.8372691962730915
2.72,-0.39935283718159065
2.724,0.16145507002024564
2.728,0.08830198682096965
2.732,-0.5054490009571982
2.736,-0.7976967063839302
2.74,-0.38584339598223616
2.744,0.1641500527293281
2.748,0.0968262215826421
2.752,-0.49635806300071383
2.756,-0.8034986498493084
2.76,-0.4060243011349396
2.764,0.14830852676550635
2.768,0.09823032160798757
2.772,-0.4859977865816389
2.776,-0.7997201403634104
2.78,-0.4112046495291484
2.784,0.14004875140034903
2.788,0.07856068095043434
2.792,-0.5414130499353759
2.796,-0.9000191733404677
2.8,-0.5234616451936654
2.804,0.0730308492931152
2.808,0.08870708699042738
2.812,-0.47466180835382077
2.816,-0.8258770144622033
2.82,-0.47562076468640124
2.824,0.09181024802942896
2.828,0.08629047032566482
2.832,-0.4983546689762581
2.836,-0.8690534498142767
2.84,-0.5166320102390032
2.844,0.0852222629032307
2.848,0.12400490747484276
2.852,-0.44375426653772665
2.856,-0.8356941609559958
2.86,-0.5153857047785632
2.864,0.0738687847736648
2.868,0.11749454303675379
2.872,-0.45249988275978664
2.876,-0.8610483280295214
2.88,-0.5483206888066953
2.884,0.06460833453802856
2.888,0.15041516578845074
2.892,-0.3955905281132333
2.896,-0.8161673667399009
2.9,-0.5310831569836778
2.904,0.06935076423357911
2.908,0.16208566862980897
2.912,-0.378451339591526
2.916,-0.8082552825073922
2.92,-0.5360186007628698
2.924,0.06317102672320926
2.928,0.16162553253022127
2.932,-0.38220974823316434
2.936,-0.8245766157849034
2.94,-0.5563937264185347
2.944,0.05429062994615142
2.948,0.16150029716645706
2.952,-0.38897059233892095
2.956,-0.8227766453341009
2.96,-0.4819816073175503
2.964,0.24564308814284358
2.968,0.38107497994595635
2.972,-0.37253275557898535
2.976,-1.1817191914442111
2.98,-1.0256209190358392
2.984,0.15120828432941072
2.988,1.4011483614849938
2.992,1.723825000520764
2.996,0.8765415153361811
3.0,-0.5683734381820585
3.004,-1.6614601153361592
3.008,-1.6732956019644982
3.012,-0.6625501913813884
3.016,0.4488785137715642
3.02,0.6634498671940721
3.024,-0.06562968529068612
3.028,-0.7865690363448857
3.032,-0.6720818315329942
3.036,0.012233212356806732
3.04,0.31585609193137354
3.044,-0.14173516688532217
3.048,-0.7077974129909825
3.052,-0.6110997808342272
3.056,-0.007068755424877142
3.06,0.2508541310630583
3.064,-0.21253529389043074
3.068,-0.773317922505312
3.072,-0.6482875586840621
3.076,0.042167220571116736
3.08,0.4177852048829742
3.084,-0.014125192426684523
3.088,-0.7365412700306112
3.092,-0.9027211292107402
3.096,-0.3475904284367424
3.1,0.38688146855420064
3.104,0.8844576949476017
3.108,1.2799065380453827
3.112,1.7432679668450133
3.116,1.9242566995600074
3.12,1.3010522063488705
3.124,0.024009192788600354
3.128,-0.9670559237520461
3.132,-0.8980538312387975
3.136,-0.07874435446380991
3.14,0.4262636154018063
3.144,0.054668910051861586
3.148,-0.6240457418852579
3.152,-0.7064683316625804
3.156,-0.13611382903214764
3.16,0.27210288265281807
3.164,-0.04039135241872276
3.168,-0.6286949221388909
3.172,-0.6727576785963993
3.176,-0.10634647296954947
3.18,0.29562791878008937
3.184,-0.017707643478069232
3.188,-0.6175082101185474
3.192,-0.6826790129206645
3.196,-0.1253090880761562
3.2,0.2872156841150269
3.204,-0.01765260285518611
3.208,-0.6310278491162985
3.212,-0.7175032376001459
3.216,-0.1561466960562483
3.22,0.2918936368547587
3.224,0.02110106596783349
3.228,-0.5914185911934553
3.232,-0.700980506255546
3.236,-0.15142095837806246
3.24,0.30740599412576847
3.244,0.04135597157013393
3.248,-0.6001563251214674
3.252,-0.7572906154330802
3.256,-0.23152406910164294
3.26,0.24371853183425427
3.264,0.006090561424430016
3.268,-0.6271968719923213
3.272,-0.7884355493404216
3.276,-0.24374201002710466
3.28,0.2835518036415719
3.284,0.09368815066271287
3.288,-0.5410976020964468
3.292,-0.7524775656434433
3.296,-0.26025893606428835
3.3,0.2522490451348175
3.304,0.07952546106531821
3.308,-0.5402827925879193
3.312,-0.7552368375159698
3.316,-0.2687787882431571
3.32,0.25492436255712025
3.324,0.10202966969769564
3.328,-0.5144368437995791
3.332,-0.7495897058741573
3.336,-0.2864195782766624
3.34,0.22996018261080392
3.344,0.0778797143618702
3.348,-0.5498127722175238
3.352,-0.8074627715736733
3.356,-0.35304930306370264
3.36,0.1843444190992971
3.364,0.06592392015089456
3.368,-0.5466728671139917
3.372,-0.8153618687633523
3.376,-0.37535635115348787
3.38,0.1654077511558635
3.384,0.0607952155898871
3.388,-0.5498838268717203
3.392,-0.8324011108633501
3.396,-0.40117974308533266
3.4,0.1513390595092054
3.404,0.06525530667893184
3.408,-0.5461184792830829
3.412,-0.8503303162508022
3.416,-0.43370455512994494
3.42,0.13404606160524293
3.424,0.07992471414249426
3.428,-0.516443016168335
3.432,-0.8352022933044475
3.436,-0.440191581535877
3.44,0.1257972233252446
3.444,0.08773305385347921
3.448,-0.49869401965314214
3.452,-0.8251422498690072
3.456,-0.44171813430482354
3.46,0.1233729077622822
3.464,0.08675566451199081
3.468,-0.5144199416310665
3.472,-0.8696211821235407
3.476,-0.5036699481119449
3.48,0.07060666911894872
3.484,0.052645771952261444
3.488,-0.5482757563539391
3.492,-0.9211414100332423
3.496,-0.5588566385347926
3.5,0.04946381784055983
3.504,0.08623538406219187
3.508,-0.48042560546003554
3.512,-0.8590416197826081
3.516,-0.5218712051315162
3.52,0.07351741067719668
3.524,0.11526375240437364
3.528,-0.44623915964711436
3.532,-0.8287840689434611
3.536,-0.49394380074107436
3.54,0.10566479678153602
3.544,0.13827855953207435
3.548,-0.46201417163966607
3.552,-0.8809845782223018
3.556,-0.5140025847907075
3.56,0.19853573179229153
3.564,0.31370941362815435
3.568,-0.40334675559521266
3.572,-1.1656858086223008
3.576,-1.0911705263406895
3.58,-0.13813185843947964
3.584,1.0187814722687567
3.588,1.7549676075100575
3.592,1.848605463389728
3.596,1.2844062234306977
3.6,0.19934259044920982
3.604,-0.8872514875972383
3.608,-1.2339786669378308
3.612,-0.6231969594272324
3.616,0.22990151793723052
3.62,0.3756548539808029
3.624,-0.26928933766160856
3.628,-0.8356740957951106
3.632,-0.6142303518599914
3.636,0.0503591345947947
3.64,0.2544882750699238
3.644,-0.2480408862982686
3.648,-0.7381608488087921
3.652,-0.5295225653383512
3.656,0.0957470064490697
3.66,0.2837017522972138
3.664,-0.21574154168379575
3.668,-0.70674049997581
3.672,-0.5045951697671223
3.676,0.12188987005845112
3.68,0.31494398795973144
3.684,-0.19847863121834078
3.688,-0.7297103001690679
3.692,-0.5654330471247625
3.696,0.05982995205511461
3.7,0.28397573672752857
3.704,-0.20620839712604352
3.708,-0.7478141914366983
3.712,-0.6064924754997553
3.716,0.02178257016341732
3.72,0.27864609684842695
3.724,-0.18516078034769176
3.728,-0.7330602719637206
3.732,-0.610209615905245
3.736,0.028135979792143464
3.74,0.32834871948874145
3.744,-0.10078891173282233
3.748,-0.6607065482890905
3.752,-0.5839638842747098
3.756,0.02005532445005397
3.76,0.32019904896453116
3.764,-0.09726610510022708
3.768,-0.6639178217070388
3.772,-0.6089316881648779
3.776,-0.014913523964440066
3.78,0.29522980676041566
3.784,-0.113772579814966
3.788,-0.6899513131623518
3.792,-0.6453644251611971
3.796,-0.03411809566255234
3.8,0.3166135259389395
3.804,-0.06789518917707146
3.808,-0.6616792434367031
3.812,-0.6522614375397952
3.816,-0.04573103360459351
3.82,0.34197807125881524
3.824,-0.005258490004335742
3.828,-0.605215274078275
3.832,-0.6395767401996759
3.836,-0.07108306866284593
3.84,0.3090671309220546
3.844,-0.03342856008044494
3.848,-0.6416097637320287
3.852,-0.6877861082108068
3.856,-0.1020075959117122
3.86,0.3326067625325586
3.864,0.047453879232488935
3.868,-0.5395665680815455
3.872,-0.601188339666241
3.876,-0.036430424439593455
3.88,0.3892307769418917
3.884,0.09196137993930528
3.888,-0.5274315792619622
3.892,-0.6269431187053828
3.896,-0.07485086702840002
3.9,0.3650098914779134
3.904,0.07343554478366865
3.908,-0.5744461468622966
3.912,-0.7118920492258778
3.916,-0.15506049727510374
3.92,0.3497617898058135
3.924,0.14233698357428942
3.928,-0.45885940361803657
3.932,-0.6040410203873358
3.936,-0.08361181749005221
3.94,0.383517137201162
3.944,0.14378365528245315
3.948,-0.47654600527530905
3.952,-0.6019850355995753
3.956,-0.016064726315691072
3.96,0.4992755112821229
3.964,0.18726494367317903
3.968,-0.6395972854547289
3.972,-0.9283659458181815
3.976,-0.19062699442139727
3.98,0.8523445022826222
3.984,1.0275601743689509
3.988,-0.1148246286992397
3.992,-1.9995998962301262
3.996,-3.632029628377072
4.0,-4.2363014793121385
4.004,-3.5055192483650828
4.008,-1.7288293022716619
4.012,0.16379656002362683
4.016,1.058446752128786
4.02,0.5750394465516662
4.024,-0.48931287621083874
4.028,-0.9235597202931279
4.032,-0.38201579520653334
4.036,0.3200004099172075
4.04,0.28651504360407914
4.044,-0.3487540997064813
4.048,-0.6810810768271699
4.052,-0.27698100759670063
4.056,0.2652462288718051
4.06,0.16295700874645547
4.064,-0.46693606856402925
4.068,-0.7605442612001344
4.072,-0.2822921751565586
4.076,0.369839660172104
4.08,0.33804111333948217
4.084,-0.3857746302566998
4.088,-0.9637244331010295
4.092,-0.7459861800836927
4.096,0.07108593642298827
4.1,0.9146252449803621
4.104,1.5899276647416132
4.108,2.224406640642385
4.112,2.6396154047171985
4.116,2.276496013423062
4.12,0.9570353092049549
4.124,-0.558219218220557
4.128,-1.1576470375941694
4.132,-0.5741673644919858
4.136,0.27945113652046066
4.14,0.3568387482941625
4.144,-0.31610828708675165
4.148,-0.768281721628552
4.152,-0.3721542222165548
4.156,0.35643556513434305
4.16,0.4453239496377743
4.164,-0.2861502406758726
4.168,-1.0059758720683758
4.172,-0.8635299967293304
4.176,0.12210607487813
4.18,1.2616150662246681
4.184,1.9564662394223706
4.188,1.998495756930171
4.192,1.3724151404030958
4.196,0.24443427605636386
4.2,-0.8184229789004486
4.204,-1.0823705721634238
4.208,-0.41338587584445763
4.212,0.4058200558155647
4.216,0.4670120266099101
4.22,-0.20605159695044453
4.224,-0.7080013938416719
4.228,-0.4149203918185115
4.232,0.23059249609314114
4.236,0.34214204039377666
4.24,-0.2170747281203152
4.244,-0.6696362430877747
4.248,-0.3950139420961311
4.252,0.2268281965375692
4.256,0.3432248265680244
4.26,-0.20113720047475717
4.264,-0.6528062770713436
4.268,-0.38173786345959043
4.272,0.25830492152535095
4.276,0.4165698132899018
4.28,-0.09182194803372426
4.284,-0.5405100845195969
4.288,-0.2959521188815557
4.292,0.3100682703323045
4.296,0.4377535421662528
4.3,-0.10159417179580023
4.304,-0.5778807403282074
4.308,-0.3382834940715695
4.312,0.29584944090739573
4.316,0.4637838373008287
4.32,-0.05836969910300091
4.324,-0.5493831597671465
4.328,-0.3278201260304063
4.332,0.314223010070667
4.336,0.5059857812270032
4.34,-0.015462570992631848
4.344,-0.5458564013999501
4.348,-0.37127950520016506
4.352,0.26367968977134604
4.356,0.4952136894067792
4.36,0.019610270354053334
4.364,-0.49812402156536795
4.368,-0.3401351023816793
4.372,0.27952481142315416
4.376,0.5078845224733416
4.38,0.021911245178736775
4.384,-0.525882454820928
4.388,-0.39567014619740004
4.392,0.229466099600394
4.396,0.49115165772590796
4.4,0.025093783871097005
4.404,-0.5416407489252056
4.408,-0.44292771009770954
4.412,0.18631299233655002
4.416,0.49791037311947645
4.42,0.08628482636182384
4.424,-0.4648076120516195
4.428,-0.3860787858626657
4.432,0.22476486308381743
4.436,0.5386363789915377
4.44,0.12955138232513722
4.444,-0.444633507060875
4.448,-0.4080008866116097
4.452,0.17015359260771207
4.456,0.470605827698654
4.46,0.049465464491171125
4.464,-0.5460223910932505
4.468,-0.5171927614508658
4.472,0.09733979916948729
4.476,0.47092346194669255
4.48,0.1115924873139221
4.484,-0.47184231051186765
4.488,-0.4680410897738364
4.492,0.12781676022812588
4.496,0.5075410526207125
4.5,0.15368732546578642
4.504,-0.45410640246574896
4.508,-0.49453717195431773
4.512,0.07363647483129845
4.516,0.4564755145771218
4.52,0.11262486753262266
4.524,-0.5021094229657327
4.528,-0.5524555955473885
4.532,0.037419495508412365
4.536,0.4783675978407024
4.54,0.18931317822106697
4.544,-0.4147465738848454
4.548,-0.4945720462281003
4.552,0.06350520244622249
4.556,0.4914420267296024
4.56,0.1914121916178163
4.564,-0.44158294506743384
4.568,-0.5530073480273213
4.572,0.006793734911194081
4.576,0.476808728538666
4.58,0.22197676222237744
4.584,-0.4011703460322151
4.588,-0.532980775234811
4.592,0.011455839197197004
4.596,0.4849450799285345
4.6,0.228946580319749
4.604,-0.4162448067724603
4.608,-0.5590027179514674
4.612,0.03295966003436902
4.616,0.593612072612369
4.62,0.3554417646294504
4.624,-0.4421150809620476
4.628,-0.8500732608083454
4.632,-0.37680407024676726
4.636,0.5119934977279748
4.64,1.1056186198823335
4.644,1.292087741261588
4.648,1.4221751536277876
4.652,1.5506916603374794
4.656,1.2538287227407343
4.66,0.3275391227406954
4.664,-0.6538094076224427
4.668,-0.84451750908702
4.672,-0.1689145180010245
4.676,0.4952413572533693
4.68,0.3522604005506491
4.684,-0.34144023182301264
4.688,-0.6501562881080064
4.692,-0.19889512774755824
4.696,0.3578881823605979
4.7,0.24749678134052888
4.704,-0.3744879779372734
4.708,-0.6546533639021125
4.712,-0.21735863031549885
4.716,0.32665097876283455
4.72,0.2269554039513814
4.724,-0.37391091589118103
4.728,-0.6410678534112929
4.732,-0.20472236638253657
4.736,0.31876920830608985
4.74,0.16819306163598974
4.744,-0.5012160677229462
4.748,-0.7943750684037655
4.752,-0.27557584621410763
4.756,0.4148295700662974
4.76,0.35892132028388063
4.764,-0.4673695329520214
4.768,-1.1477607054448522
4.772,-0.8929488178398177
4.776,0.16404512047583658
4.78,1.2887812807507537
4.784,1.9151839022093131
4.788,1.8760351338949293
4.792,1.1797151202625944
4.796,0.026627490373754684
4.8,-0.982281866929952
4.804,-1.1410619488149052
4.808,-0.40966342429326325
4.812,0.3684437527227685
4.816,0.3402030545685726
4.82,-0.36008216402893933
4.824,-0.8012732520713235
4.828,-0.4536708571317032
4.832,0.14889306583247125
4.836,0.15324874767265503
4.84,-0.4617709653337237
4.844,-0.8710958025226072
4.848,-0.5330184014969065
4.852,0.07697052692128521
4.856,0.12188231652742988
4.86,-0.45335073291390954
4.864,-0.8531943817693257
4.868,-0.5266056534480728
4.872,0.0761639018696337
4.876,0.12102823019089791
4.88,-0.464977729965346
4.884,-0.889564008821438
4.888,-0.5748207119077418
4.892,0.05581271490443473
4.896,0.1575759209503052
4.9,-0.384458530769073
4.904,-0.80628264512181
4.908,-0.5160307215733508
4.912,0.09694874270890984
4.916,0.19981490713105216
4.92,-0.34102491522844686
4.924,-0.7790649098947454
4.928,-0.5138276731158761
4.932,0.08528283720216447
4.936,0.18750645778450456
4.94,-0.35708044581005755
4.944,-0.8106616737750469
4.948,-0.5614310827445533
4.952,0.035179086414462594
4.956,0.1485684864971315
4.96,-0.3741167739858227
4.964,-0.7875192179047008
4.968,-0.484620877221195
4.972,0.12356644961570747
4.976,0.1246610792907813
4.98,-0.6254447175010512
4.984,-1.1833712696957777
4.988,-0.6493162916556858
4.992,0.6412242425429298
4.996,1.3726826982351188
5.0,0.6964259838549447
5.004,-0.7981772030774723
5.008,-1.6916079669667587
5.012,-1.2468523858482172
5.016,-0.15056737381775762
5.02,0.33901260636891356
5.024,-0.16343536623783772
5.028,-0.8386695530622981
5.032,-0.7915241577609962
5.036,-0.17559187975431578
5.04,0.10119900365829518
5.044,-0.36393541820560454
5.048,-0.9378657261666943
5.052,-0.8287337790523472
5.056,-0.1629374295265723
5.06,0.1807143584041125
5.064,-0.2699422559872213
5.068,-0.9836161914539605
5.072,-1.1318307084157997
5.076,-0.582595347032831
5.08,0.11902104205460123
5.084,0.5935808665327444
5.088,1.0072050566412036
5.092,1.5118137683115327
5.096,1.7076602044543776
5.1,1.0523374272123165
5.104,-0.2710044207245811
5.108,-1.2792327927649922
5.112,-1.1977060570165206
5.116,-0.3732480750303133
5.12,0.10817856381554575
5.124,-0.29291801640690807
5.128,-0.9731021006600976
5.132,-1.0308900284277103
5.136,-0.444068280997509
5.14,-0.046718581606126824
5.144,-0.37685382302903936
5.148,-0.9611511450575958
5.152,-0.9861655432346431
5.156,-0.4201413331841151
5.16,-0.051682742450097616
5.164,-0.4017932268291993
5.168,-1.0045959632376575
5.172,-1.042396244096373
5.176,-0.4655605567067558
5.18,-0.06364493330221246
5.184,-0.3880977318515308
5.188,-0.9980175682150094
5.192,-1.0608757122891135
5.196,-0.48949107942959635
5.2,-0.062402565727295654
5.204,-0.36182035689708875
5.208,-0.9786322590787063
5.212,-1.0707647867526742
5.216,-0.5136703634065547
5.22,-0.07166230941752808
5.224,-0.35463103570729754
5.228,-0.9840274783558505
5.232,-1.108033462117282
5.236,-0.5639972080627993
5.24,-0.10048255558615969
5.244,-0.3542083063275097
5.248,-0.9790349945505077
5.252,-1.118810570752733
5.256,-0.5801747906180982
5.26,-0.1017330020312124
5.264,-0.3474793281745721
5.268,-0.9963696523375577
5.272,-1.173139096455337
5.276,-0.6370118331488759
5.28,-0.10916055666637013
5.284,-0.2928870392451169
5.288,-0.9226420737369992
5.292,-1.1359555287746985
5.296,-0.6544616146728103
5.3,-0.15742427565857944
5.304,-0.3409036161233898
5.308,-0.9575375398266244
5.312,-1.1574948795913542
5.316,-0.6647212695121517
5.32,-0.1708570474914118
5.324,-0.3937349629884879
5.328,-1.0774952871164063
5.332,-1.306745884651447
5.336,-0.7325707783536385
5.34,-0.07113500638523018
5.344,-0.2036310808498393
5.348,-1.054144144786822
5.352,-1.671640336743402
5.356,-1.3338331901356637
5.36,-0.25167176666108554
5.364,0.8348213012012274
5.368,1.4000980618757843
5.372,1.2959904910115079
5.376,0.5314640208867073
5.38,-0.6619941284269175
5.384,-1.6363534029518463
5.388,-1.700315830456929
5.392,-0.9055721922915984
5.396,-0.16508611938965226
5.4,-0.2878328500002898
5.404,-1.030434822037049
5.408,-1.4218674622828835
5.412,-1.0051504987556126
5.416,-0.3949474587920128
5.42,-0.4247867015614843
5.424,-1.0312818371016128
5.428,-1.3669399878346846
5.432,-0.9676571926083674
5.436,-0.3796739118104169
5.44,-0.401593737944164
5.444,-0.9892865137774746
5.448,-1.3223696685334003
5.452,-0.9339649780260784
5.456,-0.3512956355281974
5.46,-0.37042341054655664
5.464,-0.9624335735724872
5.468,-1.312037631997462
5.472,-0.9356989092946221
5.476,-0.34589297419247494
5.48,-0.34971511190228965
5.484,-0.9420027294135587
5.488,-1.3100599308328604
5.492,-0.9451729995882207
5.496,-0.3394977295107932
5.5,-0.3133842384670979
5.504,-0.8930335281423875
5.508,-1.2741608357531446
5.512,-0.9210949406763325
5.516,-0.2976789337901782
5.52,-0.2317281578701029
5.524,-0.7848258607474154
5.528,-1.1735483667858364
5.532,-0.846665392254426
5.536,-0.24101171010871594
5.54,-0.18090994873878846
5.544,-0.7449004000054485
5.548,-1.1532284064057743
5.552,-0.8317441270938005
5.556,-0.1969685212693795
5.56,-0.0882715354676723
5.564,-0.6243135643040502
5.568,-1.0476036710380532
5.572,-0.7668641369686813
5.576,-0.16662619350898975
5.58,-0.07404908535242252
5.584,-0.616257449951251
5.588,-1.0396428164673541
5.592,-0.7430389414388464
5.596,-0.10797344353213588
5.6,0.017185951066099946
5.604,-0.522681751491948
5.608,-0.9740253499733521
5.612,-0.7022387177774773
5.616,-0.05796047138034382
5.62,0.10375920815674099
5.624,-0.4066122122790028
5.628,-0.8560896360124345
5.632,-0.5965195582816651
5.636,0.044924677863206655
5.64,0.21375705922718688
5.644,-0.298393889234253
5.648,-0.7643252718972794
5.652,-0.515936320242002
5.656,0.13733718618869242
5.66,0.3266444190933874
5.664,-0.18916991596476043
5.668,-0.6899930764006543
5.672,-0.4732717971020328
5.676,0.18864941833541582
5.68,0.41882515998801
5.684,-0.07095304265674819
5.688,-0.5899026537318686
5.692,-0.41046929930351356
5.696,0.24342024403569673
5.7,0.5072459881239165
5.704,0.0566926869900467
5.708,-0.45466327738235135
5.712,-0.2943595209614135
5.716,0.34570531674690747
5.72,0.6134930584296567
5.724,0.16562141741257783
5.728,-0.35871177081507244
5.732,-0.20785561943951095
5.736,0.45580503289467367
5.74,0.7748409140404593
5.744,0.36290328731497146
5.748,-0.17225956276519955
5.752,-0.060291123236434964
5.756,0.5819633774283561
5.76,0.9139708522117546
5.764,0.5222774957827513
5.768,-0.01442691756565335
5.772,0.08257109454135621
5.776,0.725189369058214
5.78,1.0752176954471004
5.784,0.6872913341250182
5.788,0.11960630735534848
5.792,0.17872297647812901
5.796,0.82638321227633
5.8,1.235916702897043
5.804,0.9178789009061746
5.808,0.379140802687028
5.812,0.420688265619059
5.816,1.0383213202910686
5.82,1.429564171464251
5.824,1.0956020830030764
5.828,0.5294819056698054
5.832,0.5470869593834367
5.836,1.1730445595068573
5.84,1.6046601465326786
5.844,1.3061384151615723
5.848,0.7404007001764723
5.852,0.7384471385449926
5.856,1.3657100834288112
5.86,1.8325469100616874
5.864,1.571083891251573
5.868,1.0080804262037795
5.872,0.9787506941710105
5.876,1.5831597060353022
5.88,2.0492814658501093
5.884,1.7913218307974632
5.888,1.2162788080819944
5.892,1.1726769327940185
5.896,1.7907630838005155
5.9,2.299623163542831
5.904,2.076529273023003
5.908,1.499218611144115
5.912,1.4345287278525396
5.916,2.054702362546858
5.92,2.594857782447009
5.924,2.3897770518271937
5.928,1.7868936582544126
5.932,1.6931055094774685
5.936,2.356987916324172
5.94,3.0155662617242807
5.944,2.8696303680009843
5.948,2.094670463295388
5.952,1.6074207599255073
5.956,1.9935012851885834
5.96,3.0101679802585806
5.964,4.110810833655971
5.968,5.010929502477905
5.972,5.489609339390708
5.976,4.989000366273254
5.98,2.958713688304588
5.984,-0.31498981217464295
