Timestamp,LO_plus,LO_minus,Raw_ADC,Voltage_mV
1764842317.8473327,0,0,-1870,-233.750
1764842317.8491526,0,0,-1870,-233.750
1764842317.850878,1,1,1541,192.625
1764842317.8535192,1,1,5467,683.375
1764842317.8574991,0,0,793,99.125
1764842317.861498,0,0,-2065,-258.125
1764842317.8654866,0,0,-2272,-284.000
1764842317.869489,0,0,55,6.875
1764842317.8734834,1,1,4254,531.750
1764842317.8775008,0,0,427,53.375
1764842317.8814976,0,0,-2119,-264.875
1764842317.8854992,0,0,-2316,-289.500
1764842317.8894951,0,0,-390,-48.750
1764842317.8935423,1,1,3905,488.125
1764842317.897501,0,0,482,60.250
1764842317.901486,0,0,-2082,-260.250
1764842317.9054854,0,0,-2303,-287.875
1764842317.9094965,0,0,-223,-27.875
1764842317.9135368,1,1,4157,519.625
1764842317.917505,0,0,761,95.125
1764842317.9214878,0,0,-1999,-249.875
1764842317.9254851,0,0,-2336,-292.000
1764842317.9294984,0,0,-658,-82.250
1764842317.933536,1,1,3755,469.375
1764842317.9375012,0,0,817,102.125
1764842317.9414866,0,0,-1959,-244.875
1764842317.9454868,0,0,-2317,-289.625
1764842317.949498,0,0,-471,-58.875
1764842317.953531,1,1,4028,503.500
1764842317.957502,0,0,1162,145.250
1764842317.9614837,0,0,-1851,-231.375
1764842317.965485,0,0,-2309,-288.625
1764842317.9694974,0,0,-517,-64.625
1764842317.9734926,1,1,4018,502.250
1764842317.9799128,0,0,1319,164.875
1764842317.9818575,0,0,-1792,-224.000
1764842317.985527,0,0,-2337,-292.125
1764842317.989497,0,0,-1172,-146.500
1764842317.9934895,1,1,3198,399.750
1764842317.997544,0,0,1143,142.875
1764842318.0014923,0,0,-1804,-225.500
1764842318.005484,0,0,-2324,-290.500
1764842318.0094888,0,0,-1030,-128.750
1764842318.0135434,1,1,3430,428.750
1764842318.0175004,0,0,1494,186.750
1764842318.0214844,0,0,-1683,-210.375
1764842318.0254838,0,0,-2306,-288.250
1764842318.029495,0,0,-1011,-126.375
1764842318.0335064,1,1,3472,434.000
1764842318.0375795,0,0,1750,218.750
1764842318.0415905,0,0,-1589,-198.625
1764842318.0455139,0,0,-2291,-286.375
1764842318.0494964,0,0,-1087,-135.875
1764842318.0534868,1,1,3365,420.625
1764842318.0574973,0,0,1917,239.625
1764842318.0615346,0,0,-1518,-189.750
1764842318.0655143,0,0,-2284,-285.500
1764842318.0694883,0,0,-1455,-181.875
1764842318.073485,1,1,2779,347.375
1764842318.0774999,0,0,1811,226.375
1764842318.081494,0,0,-1517,-189.625
1764842318.0855348,0,0,-2273,-284.125
1764842318.0894997,0,0,-1443,-180.375
1764842318.0934849,1,1,2787,348.375
1764842318.097496,0,0,2074,259.250
1764842318.1015286,0,0,-1409,-176.125
1764842318.1055162,0,0,-2250,-281.250
1764842318.1094894,0,0,-1675,-209.375
1764842318.113482,1,1,2321,290.125
1764842318.1174963,0,0,2018,252.250
1764842318.1215322,0,0,-1389,-173.625
1764842318.1255157,0,0,-2232,-279.000
1764842318.1294963,0,0,-1607,-200.875
1764842318.1334834,1,1,2436,304.500
1764842318.1374955,0,0,2366,295.750
1764842318.141495,0,0,-1248,-156.000
1764842318.1454926,0,0,-2193,-274.125
1764842318.1495063,0,0,-1406,-175.750
1764842318.1535542,1,1,2782,347.750
1764842318.1575062,0,0,2777,347.125
1764842318.1614845,0,0,-1102,-137.750
1764842318.1654832,0,0,-2163,-270.375
1764842318.169495,0,0,-2016,-252.000
1764842318.173543,1,1,1340,167.500
1764842318.1774993,0,0,2003,250.375
1764842318.1814835,0,0,-1292,-161.500
1764842318.1854823,0,0,-2177,-272.125
1764842318.1894972,0,0,-2093,-261.625
1764842318.1935337,1,1,987,123.375
1764842318.1975017,0,0,2041,255.125
1764842318.201483,0,0,-1216,-152.000
1764842318.2054827,0,0,-2137,-267.125
1764842318.209495,0,0,-1667,-208.375
1764842318.2135465,1,1,2155,269.375
1764842318.2175,0,0,3175,396.875
1764842318.2214806,0,0,-818,-102.250
1764842318.2254825,0,0,-2043,-255.375
1764842318.2294946,0,0,-1834,-229.250
1764842318.2335405,1,1,1677,209.625
1764842318.2374992,0,0,3063,382.875
1764842318.2415504,0,0,-810,-101.250
1764842318.2455018,0,0,-2032,-254.000
1764842318.2494903,0,0,-1819,-227.375
1764842318.253483,1,1,1674,209.250
1764842318.257491,0,0,3270,408.750
1764842318.261546,0,0,-704,-88.000
1764842318.2655134,0,0,-1998,-249.750
1764842318.2695444,0,0,-1818,-227.250
1764842318.273482,1,1,1627,203.375
1764842318.277493,0,0,3439,429.875
1764842318.2814903,0,0,-605,-75.625
1764842318.2855463,0,0,-1967,-245.875
1764842318.2895036,0,0,-2009,-251.125
1764842318.2934823,1,1,965,120.625
1764842318.2974937,0,0,3093,386.625
1764842318.30149,0,0,-668,-83.500
1764842318.3054886,0,0,-1969,-246.125
1764842318.3094842,0,0,-1995,-249.375
1764842318.3134809,1,1,963,120.375
1764842318.3174915,0,0,3304,413.000
1764842318.3214896,0,0,-535,-66.875
1764842318.3255348,0,0,-1923,-240.375
1764842318.3295026,0,0,-2016,-252.000
1764842318.3334806,1,1,792,99.000
1764842318.3374908,0,0,3360,420.000
1764842318.3415232,0,0,-449,-56.125
1764842318.3455074,0,0,-1888,-236.000
1764842318.3494835,0,0,-2030,-253.750
1764842318.3534803,1,1,643,80.375
1764842318.357493,0,0,3391,423.875
1764842318.3615217,0,0,-375,-46.875
1764842318.3655255,0,0,-1857,-232.125
1764842318.369492,0,0,-2103,-262.875
1764842318.3734798,1,1,154,19.250
1764842318.3774898,0,0,3083,385.375
1764842318.3815203,0,0,-415,-51.875
1764842318.3855095,0,0,-1849,-231.125
1764842318.389483,0,0,-2098,-262.250
1764842318.3934789,1,1,52,6.500
1764842318.3974888,0,0,3159,394.875
1764842318.4015453,0,0,-298,-37.250
1764842318.4056005,0,0,-1799,-224.875
1764842318.409592,0,0,-2029,-253.625
1764842318.4135797,1,1,342,42.750
1764842318.4175959,0,0,3636,454.500
1764842318.4216435,0,0,-39,-4.875
1764842318.4256253,0,0,-1719,-214.875
1764842318.4295855,0,0,-2048,-256.000
1764842318.4335785,1,1,52,6.500
1764842318.4375982,0,0,3498,437.250
1764842318.4416866,0,0,6,0.750
1764842318.445631,0,0,-1696,-212.000
1764842318.4495986,0,0,-2031,-253.875
1764842318.4535809,1,1,67,8.375
1764842318.4575984,0,0,3670,458.750
1764842318.4616735,0,0,-1643,-205.375
1764842318.4656267,0,0,-2035,-254.375
1764842318.4695916,0,0,-126,-15.750
1764842318.4735777,1,1,3590,448.750
1764842318.4775956,0,0,232,29.000
1764842318.4816535,0,0,-1616,-202.000
1764842318.4856238,0,0,-2045,-255.625
1764842318.4895985,0,0,-347,-43.375
1764842318.4935806,1,1,3454,431.750
1764842318.4975955,0,0,281,35.125
1764842318.5016315,0,0,-1591,-198.875
1764842318.505661,0,0,-2022,-252.750
1764842318.5095882,0,0,-287,-35.875
1764842318.5135803,1,1,3662,457.750
1764842318.5175967,0,0,492,61.500
1764842318.5216281,0,0,-1523,-190.375
1764842318.5256248,0,0,-2000,-250.000
1764842318.5295966,0,0,-296,-37.000
1764842318.533753,1,1,3763,470.375
1764842318.537588,0,0,650,81.250
1764842318.5415795,0,0,-1473,-184.125
1764842318.545581,0,0,-1999,-249.875
1764842318.54958,0,0,-456,-57.000
1764842318.5536597,1,1,3656,457.000
1764842318.5576065,0,0,733,91.625
1764842318.561578,0,0,-1444,-180.500
1764842318.565578,0,0,-2009,-251.125
1764842318.5696018,0,0,-770,-96.250
1764842318.573597,1,1,3321,415.125
1764842318.5775943,0,0,718,89.750
1764842318.5815775,0,0,-1439,-179.875
1764842318.5855765,0,0,-1989,-248.625
1764842318.5895991,0,0,-615,-76.875
1764842318.5935917,1,1,3623,452.875
1764842318.5976458,0,0,1009,126.125
1764842318.6016073,0,0,-1351,-168.875
1764842318.605626,0,0,-1961,-245.125
1764842318.6095927,0,0,-579,-72.375
1764842318.6136441,1,1,3754,469.250
1764842318.6176298,0,0,1244,155.500
1764842318.621582,0,0,-1283,-160.375
1764842318.6255748,0,0,-1958,-244.750
1764842318.6296427,0,0,-794,-99.250
1764842318.6336174,1,1,3498,437.250
1764842318.637595,0,0,1268,158.500
1764842318.6416588,0,0,-1274,-159.250
1764842318.6456008,0,0,-1958,-244.750
1764842318.6495893,0,0,-891,-111.375
1764842318.6535778,1,1,3396,424.500
1764842318.6575944,0,0,1400,175.000
1764842318.6616373,0,0,-1232,-154.000
1764842318.6656146,0,0,-1950,-243.750
1764842318.669611,0,0,-1019,-127.375
1764842318.6735773,1,1,3234,404.250
1764842318.6775923,0,0,1512,189.000
1764842318.6816354,0,0,-1196,-149.500
1764842318.6856194,0,0,-1937,-242.125
1764842318.6895933,0,0,-1016,-127.000
1764842318.6935754,1,1,3255,406.875
1764842318.6975923,0,0,1730,216.250
1764842318.7016332,0,0,-1129,-141.125
1764842318.7056525,0,0,-1919,-239.875
1764842318.7095852,0,0,-990,-123.750
1764842318.713575,1,1,3315,414.375
1764842318.717591,0,0,1980,247.500
1764842318.721612,0,0,-1054,-131.750
1764842318.7256014,0,0,-1898,-237.250
1764842318.729585,0,0,-900,-112.500
1764842318.7335763,1,1,3463,432.875
1764842318.7375917,0,0,2278,284.750
1764842318.7415912,0,0,-970,-121.250
1764842318.7456393,0,0,-1888,-236.000
1764842318.7495906,0,0,-1023,-127.875
1764842318.753574,1,1,3267,408.375
1764842318.757595,0,0,2407,300.875
1764842318.7616446,0,0,-933,-116.625
1764842318.7656784,0,0,-1887,-235.875
1764842318.7696168,0,0,-1156,-144.500
1764842318.7736561,1,1,3042,380.250
1764842318.777605,0,0,2516,314.500
1764842318.7815886,0,0,-896,-112.000
1764842318.7855885,0,0,-1873,-234.125
1764842318.789591,0,0,-889,-111.125
1764842318.793639,1,1,3471,433.875
1764842318.7976012,0,0,3031,378.875
1764842318.8015845,0,0,-743,-92.875
1764842318.8055904,0,0,-1853,-231.625
1764842318.809597,0,0,-1119,-139.875
1764842318.8135908,1,1,3079,384.875
1764842318.8175821,0,0,3029,378.625
1764842318.821574,0,0,-741,-92.625
1764842318.8256326,0,0,-1863,-232.875
1764842318.8295932,0,0,-1111,-138.875
1764842318.8335767,1,1,3081,385.125
1764842318.8375964,0,0,3292,411.500
1764842318.847223,0,0,-1073,-134.125
1764842318.8495972,0,0,-1073,-134.125
1764842318.8535767,1,1,3124,390.500
1764842318.8575816,0,0,3661,457.625
1764842318.861619,0,0,-520,-65.000
1764842318.8655932,0,0,-1824,-228.000
1764842318.8695836,0,0,-918,-114.750
1764842318.8735847,1,1,3338,417.250
1764842318.8775804,0,0,4232,529.000
1764842318.8816278,0,0,-299,-37.375
1764842318.8856168,0,0,-1525,-190.625
1764842318.8895903,0,0,821,102.625
1764842318.8935747,1,1,5403,675.375
1764842318.897593,0,0,5954,744.250
1764842318.9015915,0,0,578,72.250
1764842318.9055867,0,0,1215,151.875
1764842318.909619,0,0,4933,616.625
1764842318.9135754,0,0,8297,1037.125
1764842318.9175966,0,0,8275,1034.375
1764842318.9215913,0,0,7183,897.875
1764842318.9255881,0,0,10064,1258.000
1764842318.9295902,0,0,10851,1356.375
1764842318.9335926,0,0,10177,1272.125
1764842318.937646,0,0,7624,953.000
1764842318.941585,0,0,4597,574.625
1764842318.9455736,0,0,7478,934.750
1764842318.9495938,0,0,9340,1167.500
1764842318.953589,0,0,9564,1195.500
1764842318.9575863,0,0,7510,938.750
1764842318.9615746,0,0,4196,524.500
1764842318.9655757,0,0,6872,859.000
1764842318.969593,0,0,8783,1097.875
1764842318.9735906,0,0,9103,1137.875
1764842318.981502,0,0,5067,633.375
1764842318.9835918,0,0,8053,1006.625
1764842318.9856079,0,0,8053,1006.625
1764842318.9895806,0,0,9400,1175.000
1764842318.9936285,0,0,9042,1130.250
1764842318.9975955,0,0,6869,858.625
1764842319.001577,0,0,3354,419.250
1764842319.0055764,0,0,6160,770.000
1764842319.009616,0,0,8180,1022.500
1764842319.0136309,0,0,8453,1056.625
1764842319.017591,0,0,6860,857.500
1764842319.0215771,0,0,3714,464.250
1764842319.0255735,0,0,6371,796.375
1764842319.0295863,0,0,8113,1014.125
1764842319.033595,0,0,8149,1018.625
1764842319.0377295,0,0,6559,819.875
1764842319.0416098,0,0,3194,399.250
1764842319.0456514,0,0,5897,737.125
1764842319.049592,0,0,7793,974.125
1764842319.0535746,0,0,7871,983.875
1764842319.0575762,0,0,6393,799.125
1764842319.0616274,0,0,2336,292.000
1764842319.0655894,0,0,4527,565.875
1764842319.0695808,0,0,6736,842.000
1764842319.0735724,0,0,7286,910.750
1764842319.0775893,0,0,6179,772.375
1764842319.0815873,0,0,3550,443.750
1764842319.085591,0,0,6107,763.375
1764842319.089584,0,0,6956,869.500
1764842319.093573,0,0,6062,757.750
1764842319.0975924,0,0,832,104.000
1764842319.1015856,0,0,2227,278.375
1764842319.105583,0,0,5042,630.250
1764842319.1096282,0,0,6381,797.625
1764842319.1135926,0,0,5951,743.875
1764842319.1176524,0,0,942,117.750
1764842319.121579,0,0,2338,292.250
1764842319.1255734,0,0,5085,635.625
1764842319.129597,0,0,6273,784.125
1764842319.133589,0,0,5822,727.750
1764842319.1375859,0,0,501,62.625
1764842319.1415706,0,0,1682,210.250
1764842319.1455693,0,0,4628,578.500
1764842319.149589,0,0,6015,751.875
1764842319.1535861,0,0,5769,721.125
1764842319.15759,0,0,583,72.875
1764842319.1615891,0,0,1522,190.250
1764842319.1656399,0,0,4379,547.375
1764842319.169596,0,0,5762,720.250
1764842319.1735718,0,0,5664,708.000
1764842319.1775906,0,0,1032,129.000
1764842319.181593,0,0,2263,282.875
1764842319.185638,0,0,4923,615.375
1764842319.189588,0,0,5880,735.000
1764842319.1935728,0,0,5559,694.875
1764842319.1975899,0,0,948,118.500
1764842319.2016296,0,0,2056,257.000
1764842319.2056136,0,0,4726,590.750
1764842319.209623,0,0,5687,710.875
1764842319.2135718,0,0,5435,679.375
1764842319.2175884,0,0,1069,133.625
1764842319.2216203,0,0,2242,280.250
1764842319.2256134,0,0,4874,609.250
1764842319.2295763,0,0,5661,707.625
1764842319.2335696,0,0,5313,664.125
1764842319.237589,0,0,541,67.625
1764842319.241588,0,0,1129,141.125
1764842319.2456574,0,0,3983,497.875
1764842319.2495978,0,0,5194,649.250
1764842319.2535691,0,0,5175,646.875
1764842319.2575808,0,0,430,53.750
1764842319.2615867,0,0,690,86.250
1764842319.2655842,0,0,3589,448.625
1764842319.2696617,1,1,4933,616.625
1764842319.273584,0,0,5061,632.625
1764842319.2775922,0,0,425,53.125
1764842319.2815871,0,0,418,52.250
1764842319.2855887,0,0,3332,416.500
1764842319.2895837,0,0,4745,593.125
1764842319.2935896,0,0,4958,619.750
1764842319.2976365,0,0,579,72.375
1764842319.301582,0,0,520,65.000
1764842319.3055713,0,0,3385,423.125
1764842319.3096306,1,1,4693,586.625
1764842319.3136246,0,0,4857,607.125
1764842319.3176143,0,0,418,52.250
1764842319.3215706,0,0,-82,-10.250
1764842319.325572,0,0,2858,357.250
1764842319.3295925,1,1,4390,548.750
1764842319.3336473,0,0,4738,592.250
1764842319.3375945,0,0,706,88.250
1764842319.341569,0,0,342,42.750
1764842319.3455718,0,0,3186,398.250
1764842319.3495908,0,0,4465,558.125
1764842319.3535874,0,0,4644,580.500
1764842319.3575819,0,0,85,10.625
1764842319.3615677,0,0,-1649,-206.125
1764842319.365568,0,0,98,12.250
1764842319.3695915,0,1,2839,354.875
1764842319.3735883,0,0,4353,544.125
1764842319.3776364,0,0,153,19.125
1764842319.381591,0,0,-813,-101.625
1764842319.3855803,0,0,-1647,-205.875
1764842319.389589,1,1,369,46.125
1764842319.3935857,0,0,3578,447.250
1764842319.3975794,0,0,296,37.000
1764842319.4015644,0,0,-808,-101.000
1764842319.4055665,0,0,-1289,-161.125
1764842319.4095879,1,1,-811,-101.375
1764842319.413621,0,0,2963,370.375
1764842319.4175873,0,0,370,46.250
1764842319.4215856,0,0,-832,-104.000
1764842319.4256272,0,0,-1281,-160.125
1764842319.4295886,1,1,-809,-101.125
1764842319.433569,0,0,3130,391.250
1764842319.4375892,0,0,849,106.125
1764842319.4416232,0,0,-921,-115.125
1764842319.44567,0,0,-1240,-155.000
1764842319.4495976,1,1,-885,-110.625
1764842319.4535716,0,0,3177,397.125
1764842319.4575894,0,0,1301,162.625
1764842319.4615848,0,0,-1098,-137.250
1764842319.4655912,0,0,-1177,-147.125
1764842319.4695756,1,1,-1018,-127.250
1764842319.4736302,0,0,3127,390.875
1764842319.4775949,0,0,1718,214.750
1764842319.481571,0,0,-1211,-151.375
1764842319.4855664,0,0,-1186,-148.250
1764842319.4895883,1,1,-1008,-126.000
1764842319.493634,0,0,3196,399.500
1764842319.4976034,0,0,2106,263.250
1764842319.5015717,0,0,-1391,-173.875
1764842319.5055678,0,0,-1294,-161.750
1764842319.5095878,1,1,-783,-97.875
1764842319.5136185,0,0,3481,435.125
1764842319.517583,0,0,2599,324.875
1764842319.5216134,0,0,-1432,-179.000
1764842319.5256119,0,0,-1024,-128.000
1764842319.5295753,1,1,-1344,-168.000
1764842319.5335782,0,0,2843,355.375
1764842319.5375803,0,0,2632,329.000
1764842319.5415716,0,0,-1498,-187.250
1764842319.5455675,0,0,-1047,-130.875
1764842319.549567,1,1,-1340,-167.500
1764842319.5536456,0,0,2864,358.000
1764842319.5575984,0,0,3012,376.500
1764842319.5615814,0,0,-1622,-202.750
1764842319.565577,0,0,-1578,-197.250
1764842319.5695856,1,1,-121,-15.125
1764842319.573637,0,0,4200,525.000
1764842319.5775902,0,0,3982,497.750
1764842319.5815694,0,0,-1539,-192.375
1764842319.5855649,0,0,-1140,-142.500
1764842319.5895867,1,1,-1236,-154.500
1764842319.5936313,0,0,2995,374.375
1764842319.5975888,0,0,3631,453.875
1764842319.6015642,0,0,-1590,-198.750
1764842319.6055682,0,0,-928,-116.000
1764842319.6095872,1,1,-1769,-221.125
1764842319.6136723,0,0,1996,249.500
1764842319.61759,0,0,3305,413.125
1764842319.621565,0,0,-1615,-201.875
1764842319.6255674,0,0,-1178,-147.250
1764842319.629586,1,1,-1488,-186.000
1764842319.633629,0,0,2616,327.000
1764842319.6375914,0,0,3952,494.000
1764842319.641563,0,0,-1353,-169.125
1764842319.64565,0,0,-1388,-173.500
1764842319.6495874,1,1,-1585,-198.125
1764842319.6536322,0,0,2436,304.500
1764842319.6575904,0,0,4100,512.500
1764842319.6615627,0,0,-1201,-150.125
1764842319.6655617,0,0,-1650,-206.250
1764842319.6695874,1,1,-1493,-186.625
1764842319.6735806,0,0,2569,321.125
1764842319.6775813,0,0,4424,553.000
1764842319.6815622,0,0,-992,-124.000
1764842319.685559,0,0,-1731,-216.375
1764842319.6895838,1,1,-1657,-207.125
1764842319.6935828,0,0,2260,282.500
1764842319.6976316,0,0,-860,-107.500
1764842319.7015996,0,0,-1813,-226.625
1764842319.7055821,0,0,-1797,-224.625
1764842319.7095675,1,1,1937,242.125
1764842319.7136207,0,0,4462,557.750
1764842319.717599,0,0,-731,-91.375
1764842319.7215674,0,0,-2269,-283.625
1764842319.7255638,0,0,-1220,-152.500
1764842319.7295876,1,1,2915,364.375
1764842319.7336383,0,0,5297,662.125
1764842319.7375846,0,0,-341,-42.625
1764842319.741567,0,0,-2186,-273.250
1764842319.7455635,0,0,-1700,-212.500
1764842319.7495828,1,1,2103,262.875
1764842319.7536442,0,0,4943,617.875
1764842319.7576113,0,0,-346,-43.250
1764842319.7615693,0,0,-2255,-281.875
1764842319.7655678,0,0,-1543,-192.875
1764842319.769585,1,1,2382,297.750
1764842319.7736497,0,0,5237,654.625
1764842319.7775943,0,0,-195,-24.375
1764842319.7815657,0,0,-2131,-266.375
1764842319.7855644,0,0,-2011,-251.375
1764842319.7895672,1,1,678,84.750
1764842319.793634,0,0,4177,522.125
1764842319.7975843,0,0,-371,-46.375
1764842319.801566,0,0,-2245,-280.625
1764842319.8055646,0,0,-1809,-226.125
1764842319.8095822,1,1,1807,225.875
1764842319.8135793,0,0,5261,657.625
1764842319.81761,0,0,218,27.250
1764842319.821565,0,0,-2215,-276.875
1764842319.825564,0,0,-1852,-231.500
1764842319.8295836,1,1,1678,209.750
1764842319.8335724,0,0,5302,662.750
1764842319.837572,0,0,381,47.625
1764842319.8415744,0,0,-2197,-274.625
1764842319.8509188,1,1,1943,242.875
1764842319.8536167,0,0,5642,705.250
1764842319.8575883,0,0,693,86.625
1764842319.8615887,0,0,-2152,-269.000
1764842319.8655674,0,0,-1602,-200.250
1764842319.869566,1,1,2141,267.625
1764842319.87356,0,0,5877,734.625
1764842319.8775845,0,0,922,115.250
1764842319.8815749,0,0,-2114,-264.250
1764842319.8855736,0,0,-1827,-228.375
1764842319.8895783,1,1,1675,209.375
1764842319.8935764,0,0,5636,704.500
1764842319.897579,0,0,994,124.250
1764842319.9015782,0,0,-2104,-263.000
1764842319.9055789,0,0,-1739,-217.375
1764842319.909579,1,1,1850,231.250
1764842319.9135768,0,0,5845,730.625
1764842319.9175825,0,0,1251,156.375
1764842319.9215987,0,0,-2058,-257.250
1764842319.9255865,0,0,-1931,-241.375
1764842319.929578,1,1,1396,174.500
1764842319.9335654,0,0,5582,697.750
1764842319.937581,0,0,1355,169.375
1764842319.9415755,0,0,-2042,-255.250
1764842319.9455743,0,0,-2011,-251.375
1764842319.9495676,1,1,1161,145.125
1764842319.9535623,0,0,5457,682.125
1764842319.9575803,0,0,1491,186.375
1764842319.9615738,0,0,-2014,-251.750
1764842319.9655726,0,0,-1910,-238.750
1764842319.9695792,1,1,1423,177.875
1764842319.9735746,0,0,5711,713.875
1764842319.981018,0,0,1805,225.625
1764842319.9831548,0,0,-1952,-244.000
1764842319.9856195,0,0,-2029,-253.625
1764842319.9895673,1,1,1084,135.500
1764842319.9935613,0,0,5485,685.625
1764842319.997585,0,0,1919,239.875
1764842320.0015678,0,0,-1927,-240.875
1764842320.0055585,0,0,-2130,-266.250
1764842320.0095592,1,1,726,90.750
1764842320.0135612,0,0,5222,652.750
1764842320.0175896,0,0,2036,254.500
1764842320.021576,0,0,-1897,-237.125
1764842320.0255747,0,0,-2176,-272.000
1764842320.0295696,1,1,526,65.750
1764842320.0335798,0,0,5070,633.750
1764842320.0375764,0,0,2214,276.750
1764842320.0415611,0,0,-1848,-231.000
1764842320.045617,0,0,-2191,-273.875
1764842320.0497975,1,1,465,58.125
1764842320.0538962,0,0,5037,629.625
1764842320.0576046,0,0,2543,317.875
1764842320.061567,0,0,-1759,-219.875
1764842320.0655613,0,0,-2015,-251.875
1764842320.0695748,1,1,1085,135.625
1764842320.0735757,0,0,5557,694.625
1764842320.0775728,0,0,2929,366.125
1764842320.0815606,0,0,-1670,-208.750
1764842320.0855582,0,0,-2211,-276.375
1764842320.0895777,1,1,377,47.125
1764842320.093572,0,0,4954,619.250
1764842320.097578,0,0,2896,362.000
1764842320.1015747,0,0,-1671,-208.875
1764842320.1055748,0,0,-2202,-275.250
1764842320.109576,1,1,415,51.875
1764842320.1135712,0,0,4987,623.375
1764842320.1175785,0,0,3180,397.500
1764842320.1216147,0,0,-1589,-198.625
1764842320.1255744,0,0,-2284,-285.500
1764842320.129581,1,1,-109,-13.625
1764842320.1335719,0,0,4487,560.875
1764842320.1375785,0,0,3190,398.750
1764842320.141584,0,0,-1566,-195.750
1764842320.1455772,0,0,-2267,-283.375
1764842320.149566,1,1,53,6.625
1764842320.1535585,0,0,4634,579.250
1764842320.1575766,0,0,3507,438.375
1764842320.1615758,0,0,-1462,-182.750
1764842320.1655753,0,0,-2290,-286.250
1764842320.1695714,1,1,-127,-15.875
1764842320.17356,0,0,4442,555.250
1764842320.1775723,0,0,3657,457.125
1764842320.1815705,0,0,-1397,-174.625
1764842320.1855705,0,0,-2311,-288.875
1764842320.1895702,1,1,-352,-44.000
1764842320.1935725,0,0,4194,524.250
1764842320.1975737,0,0,3779,472.375
1764842320.2015674,0,0,-1331,-166.375
1764842320.205567,0,0,-2308,-288.500
1764842320.2095773,1,1,-302,-37.750
1764842320.213573,0,0,4226,528.250
1764842320.2175741,0,0,4048,506.000
1764842320.2215827,0,0,-1222,-152.750
1764842320.2255695,0,0,-2316,-289.500
1764842320.2295728,1,1,-408,-51.000
1764842320.2335699,0,0,4092,511.500
1764842320.237574,0,0,4201,525.125
1764842320.241567,0,0,-1144,-143.000
1764842320.2455692,0,0,-2325,-290.625
1764842320.2496505,1,1,-601,-75.125
1764842320.2535894,0,0,3858,482.250
1764842320.2575748,0,0,4319,539.875
1764842320.2615616,0,0,-1065,-133.125
1764842320.2655544,0,0,-2326,-290.750
1764842320.269627,1,1,-669,-83.625
1764842320.273577,0,0,3757,469.625
1764842320.2775736,0,0,4480,560.000
1764842320.2815578,0,0,-971,-121.375
1764842320.2855542,0,0,-2324,-290.500
1764842320.289572,1,1,-1041,-130.125
1764842320.2935603,0,0,3282,410.250
1764842320.2975733,0,0,4418,552.250
1764842320.301576,0,0,-934,-116.750
1764842320.3055713,0,0,-2317,-289.625
1764842320.3095717,1,1,-1228,-153.500
1764842320.3135707,0,0,4467,558.375
1764842320.3175802,0,0,-852,-106.500
1764842320.3216102,0,0,-2314,-289.250
1764842320.3255768,0,0,-1324,-165.500
1764842320.3295755,1,1,2837,354.625
1764842320.3335729,0,0,4572,571.500
1764842320.3375814,0,0,-746,-93.250
1764842320.341577,0,0,-2297,-287.125
1764842320.3455822,0,0,-1609,-201.125
1764842320.3495622,1,1,2342,292.750
1764842320.3535552,0,0,4464,558.000
1764842320.3575747,0,0,-694,-86.750
1764842320.3615744,0,0,-2300,-287.500
1764842320.365574,0,0,-1592,-199.000
1764842320.3695672,1,1,2345,293.125
1764842320.3735573,0,0,4664,583.000
1764842320.3775725,0,0,-538,-67.250
1764842320.381573,0,0,-2287,-285.875
1764842320.3855724,0,0,-1560,-195.000
1764842320.3895617,1,1,2376,297.000
1764842320.3935523,0,0,4855,606.875
1764842320.3975677,0,0,-395,-49.375
1764842320.4015741,0,0,-2266,-283.250
1764842320.4055738,0,0,-1980,-247.500
1764842320.4095778,1,1,1427,178.375
1764842320.4135695,0,0,4304,538.000
1764842320.4175732,0,0,-511,-63.875
1764842320.4215713,0,0,-2271,-283.875
1764842320.4256084,0,0,-2224,-278.000
1764842320.4295702,1,1,414,51.750
1764842320.4335706,0,0,3622,452.750
1764842320.4375737,0,0,-638,-79.750
1764842320.4415696,0,0,-2277,-284.625
1764842320.445572,0,0,-2312,-289.000
1764842320.4496546,1,1,-326,-40.750
1764842320.4535885,0,0,3060,382.500
1764842320.4575706,0,0,-705,-88.125
1764842320.4615526,0,0,-2269,-283.625
1764842320.4655519,0,0,-2313,-289.125
1764842320.469574,1,1,-178,-22.250
1764842320.4735723,0,0,3377,422.125
1764842320.4775681,0,0,-443,-55.375
1764842320.481552,0,0,-2206,-275.750
1764842320.4855509,0,0,-2325,-290.625
1764842320.4895716,1,1,-339,-42.375
1764842320.4935696,0,0,3361,420.125
1764842320.4975753,0,0,-300,-37.500
1764842320.501567,0,0,-2154,-269.250
1764842320.505567,0,0,-2320,-290.000
1764842320.5095685,1,1,-377,-47.125
1764842320.5135674,0,0,3456,432.000
1764842320.517574,0,0,-122,-15.250
1764842320.5215662,0,0,-2090,-261.250
1764842320.5256035,0,0,-2319,-289.875
1764842320.5295687,1,1,-534,-66.750
1764842320.5335686,0,0,3404,425.500
1764842320.5376072,0,0,6,0.750
1764842320.541569,0,0,-2033,-254.125
1764842320.545553,0,0,-2303,-287.875
1764842320.5495527,1,1,-530,-66.250
1764842320.5535548,0,0,3522,440.250
1764842320.5575738,0,0,210,26.250
1764842320.5615718,0,0,-1956,-244.500
1764842320.5655687,0,0,-2293,-286.625
1764842320.5695622,1,1,-639,-79.875
1764842320.573554,0,0,3479,434.875
1764842320.5775714,0,0,304,38.000
1764842320.58157,0,0,-1906,-238.250
1764842320.585569,0,0,-2309,-288.625
1764842320.5895674,1,1,-1417,-177.125
1764842320.593567,0,0,2401,300.125
1764842320.5975723,0,0,-33,-4.125
1764842320.60157,0,0,-1948,-243.500
1764842320.6055706,0,0,-2293,-286.625
1764842320.6095753,1,1,-1416,-177.000
1764842320.6135676,0,0,2496,312.000
1764842320.6175745,0,0,218,27.250
1764842320.621572,0,0,-1843,-230.375
1764842320.6256065,0,0,-2244,-280.500
1764842320.6295667,1,1,-960,-120.000
1764842320.6335654,0,0,3300,412.500
1764842320.637572,0,0,795,99.375
1764842320.6415691,0,0,-1661,-207.625
1764842320.6455677,0,0,-2204,-275.500
1764842320.6496491,1,1,-970,-121.250
1764842320.6535883,0,0,3332,416.500
1764842320.65757,0,0,993,124.125
1764842320.661552,0,0,-1586,-198.250
1764842320.6655521,0,0,-2186,-273.250
1764842320.6695724,1,1,-1073,-134.125
1764842320.6735687,0,0,3219,402.375
1764842320.677562,0,0,1123,140.375
1764842320.6815493,0,0,-1531,-191.375
1764842320.6855526,0,0,-2174,-271.750
1764842320.689575,1,1,-1319,-164.875
1764842320.6935718,0,0,2850,356.250
1764842320.6975691,0,0,1132,141.500
1764842320.7015686,0,0,-1506,-188.250
1764842320.7055678,0,0,-2156,-269.500
1764842320.7095683,1,1,-1334,-166.750
1764842320.7135692,0,0,2842,355.250
1764842320.7175732,0,0,1327,165.875
1764842320.7215655,0,0,-1429,-178.625
1764842320.7255702,0,0,-2127,-265.875
1764842320.7296124,1,1,-1294,-161.750
1764842320.7335684,0,0,2919,364.875
1764842320.7375712,0,0,1601,200.125
1764842320.7415717,0,0,-1333,-166.625
1764842320.7455728,0,0,-2098,-262.250
1764842320.7495565,1,1,-1322,-165.250
1764842320.7535505,0,0,2870,358.750
1764842320.7575657,0,0,1805,225.625
1764842320.7615497,0,0,-1257,-157.125
1764842320.765548,0,0,-2073,-259.125
1764842320.7695525,1,1,-1285,-160.625
1764842320.7735536,0,0,2927,365.875
1764842320.77757,0,0,2140,267.500
1764842320.7815661,0,0,-1142,-142.750
1764842320.785564,0,0,-1995,-249.375
1764842320.7895544,1,1,-459,-57.375
1764842320.7935498,0,0,4136,517.000
1764842320.7975626,0,0,3112,389.000
1764842320.8015645,0,0,-855,-106.875
1764842320.8055654,0,0,-1922,-240.250
1764842320.809569,1,1,-288,-36.000
1764842320.813567,0,0,4330,541.250
1764842320.8175704,0,0,3468,433.500
1764842320.8215687,0,0,-761,-95.125
1764842320.8255641,0,0,-1943,-242.875
1764842320.8295653,1,1,-490,-61.250
1764842320.8335662,0,0,4061,507.625
1764842320.8375733,0,0,3552,444.000
1764842320.8415658,0,0,-745,-93.125
1764842320.8455627,0,0,-1955,-244.375
1764842320.8550627,0,0,3830,478.750
1764842320.8575964,0,0,3830,478.750
1764842320.861572,0,0,-664,-83.000
1764842320.8655667,0,0,-1892,-236.500
1764842320.8695564,1,1,-13,-1.625
1764842320.873547,0,0,4597,574.625
1764842320.8775654,0,0,4330,541.250
1764842320.881568,0,0,-526,-65.750
1764842320.8855689,0,0,-1990,-248.750
1764842320.8895576,1,1,-957,-119.625
1764842320.8935487,0,0,3377,422.125
1764842320.8975658,0,0,3849,481.125
1764842320.9015663,0,0,-668,-83.500
1764842320.9055643,0,0,-2007,-250.875
1764842320.909556,1,1,-568,-71.000
1764842320.9135468,0,0,3902,487.750
1764842320.917566,0,0,4402,550.250
1764842320.9215665,0,0,-487,-60.875
1764842320.9255648,0,0,-1994,-249.250
1764842320.9295702,1,1,3741,467.625
1764842320.9335616,0,0,4528,566.000
1764842320.9375668,0,0,-438,-54.750
1764842320.9415686,0,0,-2012,-251.500
1764842320.945572,0,0,-790,-98.750
1764842320.9495575,1,1,3562,445.250
1764842320.9535468,0,0,4626,578.250
1764842320.9575658,0,0,-392,-49.000
1764842320.961565,0,0,-2041,-255.125
1764842320.9655657,0,0,-1184,-148.000
1764842320.969559,1,1,2970,371.250
1764842320.9735508,0,0,4468,558.500
1764842320.9809716,0,0,-411,-51.375
1764842320.983126,0,0,-2054,-256.750
1764842320.985605,0,0,-1122,-140.250
1764842320.9895606,1,1,3052,381.500
1764842320.99355,0,0,4724,590.500
1764842320.9975684,0,0,-292,-36.500
1764842321.001552,0,0,-2047,-255.875
1764842321.0055487,0,0,-1270,-158.750
1764842321.0095522,1,1,2793,349.125
1764842321.0135472,0,0,4758,594.750
1764842321.017559,0,0,-236,-29.500
1764842321.0215592,0,0,-2051,-256.375
1764842321.0255597,0,0,-1548,-193.500
1764842321.0295947,1,1,2280,285.000
1764842321.0335586,0,0,4601,575.125
1764842321.037579,0,0,-234,-29.250
1764842321.0415666,0,0,-2055,-256.875
1764842321.045561,0,0,-1479,-184.875
1764842321.0495605,1,1,2390,298.750
1764842321.053637,0,0,4873,609.125
1764842321.057577,0,0,-78,-9.750
1764842321.0615587,0,0,-2029,-253.625
1764842321.0655584,0,0,-1591,-198.875
1764842321.0695603,1,1,2150,268.750
1764842321.07356,0,0,4885,610.625
1764842321.077561,0,0,-6,-0.750
1764842321.081559,0,0,-2019,-252.375
1764842321.085559,0,0,-1533,-191.625
1764842321.089568,1,1,2240,280.000
1764842321.0935667,0,0,5138,642.250
1764842321.0975707,0,0,163,20.375
1764842321.1015618,0,0,-1988,-248.500
1764842321.1055593,0,0,-1472,-184.000
1764842321.109564,1,1,2327,290.875
1764842321.11356,0,0,5364,670.500
1764842321.1175656,0,0,319,39.875
1764842321.121562,0,0,-1967,-245.875
1764842321.1255605,0,0,-1626,-203.250
1764842321.1296022,1,1,2011,251.375
1764842321.133561,0,0,5287,660.875
1764842321.1375692,0,0,378,47.250
1764842321.1415625,0,0,-1966,-245.750
1764842321.1455624,0,0,-1767,-220.875
1764842321.1495593,1,1,1694,211.750
1764842321.1535647,0,0,5193,649.125
1764842321.1575668,0,0,445,55.625
1764842321.1615474,0,0,-1957,-244.625
1764842321.165549,0,0,-1732,-216.500
1764842321.1695647,1,1,1758,219.750
1764842321.173562,0,0,5390,673.750
1764842321.177558,0,0,633,79.125
1764842321.181549,0,0,-1922,-240.250
1764842321.1855464,0,0,-1823,-227.875
1764842321.1895673,1,1,1525,190.625
1764842321.1935573,0,0,5328,666.000
1764842321.197564,0,0,720,90.000
1764842321.2015593,0,0,-1910,-238.750
1764842321.2055585,0,0,-1933,-241.625
1764842321.209567,1,1,1230,153.750
1764842321.2135546,0,0,5206,650.750
1764842321.21756,0,0,801,100.125
1764842321.2215617,0,0,-1896,-237.000
1764842321.2255588,0,0,-2014,-251.750
1764842321.2295897,1,1,978,122.250
1764842321.2335577,0,0,5101,637.625
1764842321.237561,0,0,903,112.875
1764842321.241559,0,0,-1872,-234.000
1764842321.2455583,0,0,-2012,-251.500
1764842321.2495642,1,1,963,120.375
1764842321.2536342,0,0,5190,648.750
1764842321.2575774,0,0,1094,136.750
1764842321.2615457,0,0,-1829,-228.625
1764842321.2655463,0,0,-2019,-252.375
1764842321.2695627,1,1,914,114.250
1764842321.2735658,0,0,5236,654.500
1764842321.2775557,0,0,1277,159.625
1764842321.281544,0,0,-1788,-223.500
1764842321.2855425,0,0,-2000,-250.000
1764842321.2895489,1,1,958,119.750
1764842321.2935462,0,0,5348,668.500
1764842321.2975636,0,0,1491,186.375
1764842321.3015614,0,0,-1740,-217.500
1764842321.3055596,0,0,-2147,-268.375
1764842321.3095627,1,1,406,50.750
1764842321.3135624,0,0,4906,613.250
1764842321.3175664,0,0,1485,185.625
1764842321.3215575,0,0,-1744,-218.000
1764842321.3255591,0,0,-2156,-269.500
1764842321.3295646,1,1,370,46.250
1764842321.3336003,0,0,4926,615.750
1764842321.3375673,0,0,1691,211.375
1764842321.3415596,0,0,-1690,-211.250
1764842321.3455594,0,0,-2180,-272.500
1764842321.3495567,1,1,230,28.750
1764842321.3535578,0,0,4826,603.250
1764842321.3575668,0,0,1856,232.000
1764842321.3615644,0,0,-1649,-206.125
1764842321.3655684,0,0,-2217,-277.125
1764842321.3695555,1,1,6,0.750
1764842321.3735466,0,0,4635,579.375
1764842321.3775604,0,0,2002,250.250
1764842321.381562,0,0,-1606,-200.750
1764842321.385559,0,0,-2202,-275.250
1764842321.389545,1,1,67,8.375
1764842321.3935416,0,0,4716,589.500
1764842321.3975601,0,0,2266,283.250
1764842321.4015598,0,0,-1533,-191.625
1764842321.4055579,0,0,-2196,-274.500
1764842321.4095504,1,1,60,7.500
1764842321.413542,0,0,4724,590.500
1764842321.4175534,0,0,2510,313.750
1764842321.4215558,0,0,-1467,-183.375
1764842321.4255545,0,0,-2224,-278.000
1764842321.4295552,1,1,-133,-16.625
1764842321.43357,0,0,4530,566.250
1764842321.4375608,0,0,2647,330.875
1764842321.4415557,0,0,-1426,-178.250
1764842321.4455554,0,0,-2223,-277.875
1764842321.4495616,1,1,-146,-18.250
1764842321.4536338,0,0,4516,564.500
1764842321.457574,0,0,2872,359.000
1764842321.461546,0,0,-1361,-170.125
1764842321.4655423,0,0,-2249,-281.125
1764842321.469562,1,1,-372,-46.500
1764842321.473555,0,0,4280,535.000
1764842321.4775558,0,0,2884,360.500
1764842321.4815412,0,0,-1358,-169.750
1764842321.485542,0,0,-2314,-289.250
1764842321.4895606,1,1,-1635,-204.375
1764842321.4935553,0,0,2463,307.875
1764842321.4975603,0,0,2197,274.625
1764842321.5015569,0,0,-1507,-188.375
1764842321.5055559,0,0,-2272,-284.000
1764842321.5095577,1,1,-535,-66.875
1764842321.5135558,0,0,4061,507.625
1764842321.517557,0,0,3410,426.250
1764842321.5215526,0,0,-1128,-141.000
1764842321.525554,0,0,-2254,-281.750
1764842321.5295599,1,1,-861,-107.625
1764842321.5335894,0,0,3626,453.250
1764842321.537573,0,0,3408,426.000
1764842321.5415437,0,0,-1109,-138.625
1764842321.5455446,0,0,-2239,-279.875
1764842321.5495613,1,1,3823,477.875
1764842321.5535586,0,0,3773,471.625
1764842321.557562,0,0,-979,-122.375
1764842321.5615544,0,0,-2240,-280.000
1764842321.5655632,0,0,-912,-114.000
1764842321.5695689,1,1,3518,439.750
1764842321.573557,0,0,3835,479.375
1764842321.5775604,0,0,-936,-117.000
1764842321.5815566,0,0,-2241,-280.125
1764842321.5855541,0,0,-1007,-125.875
1764842321.5895457,1,1,3364,420.500
1764842321.5935407,0,0,3985,498.125
1764842321.597559,0,0,-859,-107.375
1764842321.6015558,0,0,-2239,-279.875
1764842321.6055534,0,0,-1207,-150.875
1764842321.6095598,1,1,3050,381.250
1764842321.613557,0,0,4018,502.250
1764842321.617561,0,0,-811,-101.375
1764842321.6215532,0,0,-2228,-278.500
1764842321.6255543,0,0,-1109,-138.625
1764842321.6295443,1,1,3171,396.375
1764842321.6335402,0,0,4321,540.125
1764842321.637558,0,0,-676,-84.500
1764842321.6415565,0,0,-2217,-277.125
1764842321.6455545,0,0,-1292,-161.500
1764842321.6495593,1,1,2865,358.125
1764842321.6536367,0,0,4362,545.250
1764842321.6575737,0,0,-612,-76.500
1764842321.6615436,0,0,-2212,-276.500
1764842321.6655374,0,0,-1511,-188.875
1764842321.6695588,1,1,2477,309.625
1764842321.6735556,0,0,4295,536.875
1764842321.6775568,0,0,-585,-73.125
1764842321.6815414,0,0,-2202,-275.250
1764842321.6855383,0,0,-1345,-168.125
1764842321.6895585,1,1,2734,341.750
1764842321.693556,0,0,4685,585.625
1764842321.6975605,0,0,-398,-49.750
1764842321.701553,0,0,-2176,-272.000
1764842321.705552,0,0,-1619,-202.375
1764842321.7095535,1,1,2220,277.500
1764842321.713553,0,0,4533,566.625
1764842321.7175555,0,0,-381,-47.625
1764842321.7215567,0,0,-2170,-271.250
1764842321.7255547,0,0,-1555,-194.375
1764842321.7295585,1,1,2312,289.000
1764842321.7335536,0,0,4802,600.250
1764842321.737597,0,0,-213,-26.625
1764842321.7415545,0,0,-2142,-267.750
1764842321.7455518,0,0,-1706,-213.250
1764842321.7495565,1,1,1986,248.250
1764842321.7535505,0,0,4768,596.000
1764842321.7575548,0,0,-137,-17.125
1764842321.761554,0,0,-2127,-265.875
1764842321.7655535,0,0,-1879,-234.875
1764842321.7695582,1,1,1565,195.625
1764842321.773551,0,0,4616,577.000
1764842321.7775514,0,0,-104,-13.000
1764842321.7815354,0,0,-2114,-264.250
1764842321.7855463,0,0,-1660,-207.500
1764842321.7895465,1,1,2025,253.125
1764842321.793539,0,0,5144,643.000
1764842321.7975523,0,0,183,22.875
1764842321.801551,0,0,-2058,-257.250
1764842321.805554,0,0,-1876,-234.500
1764842321.8095477,1,1,1508,188.500
1764842321.8135357,0,0,4908,613.500
1764842321.8175538,0,0,200,25.000
1764842321.8215528,0,0,-2054,-256.750
1764842321.8255513,0,0,-1783,-222.875
1764842321.8295562,1,1,1706,213.250
1764842321.8335528,0,0,5222,652.750
1764842321.837556,0,0,429,53.625
1764842321.8415506,0,0,-2006,-250.750
1764842321.845551,0,0,-1916,-239.500
1764842321.84956,1,1,1353,169.125
1764842321.8590684,0,0,495,61.875
1764842321.861576,0,0,-1991,-248.875
1764842321.8655534,0,0,-1644,-205.500
1764842321.8695445,1,1,1953,244.125
1764842321.8735387,0,0,5669,708.625
1764842321.8775585,0,0,828,103.500
1764842321.8815527,0,0,-1927,-240.875
1764842321.8855526,0,0,-2006,-250.750
1764842321.8895428,1,1,1053,131.625
1764842321.893538,0,0,5065,633.125
1764842321.8975549,0,0,722,90.250
1764842321.9015527,0,0,-1953,-244.125
1764842321.9055486,0,0,-2041,-255.125
1764842321.909552,1,1,939,117.375
1764842321.9135509,0,0,5083,635.375
1764842321.9175436,0,0,887,110.875
1764842321.921537,0,0,-1913,-239.125
1764842321.925535,0,0,-2014,-251.750
1764842321.9295523,1,1,1000,125.000
1764842321.9335482,0,0,5228,653.500
1764842321.937596,0,0,1097,137.125
1764842321.9415548,0,0,-1865,-233.125
1764842321.9455483,0,0,-2045,-255.625
1764842321.9495358,1,1,875,109.375
1764842321.9535336,0,0,5206,650.750
1764842321.9575586,0,0,1258,157.250
1764842321.9615524,0,0,-1826,-228.250
1764842321.9655476,0,0,-2127,-265.875
1764842321.969552,1,1,563,70.375
1764842321.9735496,0,0,4997,624.625
1764842321.9809768,0,0,1350,168.750
1764842321.9831262,0,0,-2177,-272.125
1764842321.9855924,0,0,-2177,-272.125
1764842321.9895468,1,1,339,42.375
1764842321.993533,0,0,4849,606.125
1764842321.9975545,0,0,1476,184.500
1764842322.001542,0,0,-1770,-221.250
1764842322.0055375,0,0,-2158,-269.750
1764842322.0095394,1,1,394,49.250
1764842322.0135336,0,0,4949,618.625
1764842322.017548,0,0,1722,215.250
1764842322.021553,0,0,-1706,-213.250
1764842322.0255527,0,0,-2224,-278.000
1764842322.029542,1,1,37,4.625
1764842322.033533,0,0,4634,579.250
1764842322.03767,0,0,1789,223.625
1764842322.041576,0,0,-1685,-210.625
1764842322.0455375,0,0,-2255,-281.875
1764842322.049554,1,1,-183,-22.875
1764842322.0535498,0,0,4436,554.500
1764842322.0576308,0,0,1923,240.375
1764842322.0615664,0,0,-1640,-205.000
1764842322.0655508,0,0,-2171,-271.375
1764842322.0695393,1,1,257,32.125
1764842322.0735338,0,0,4910,613.750
1764842322.0775485,0,0,2389,298.625
1764842322.081548,0,0,-1516,-189.500
1764842322.0855484,0,0,-2203,-275.375
1764842322.0895452,1,1,43,5.375
1764842322.0935361,0,0,4706,588.250
1764842322.097545,0,0,2522,315.250
1764842322.1015456,0,0,-1480,-185.000
1764842322.1055439,0,0,-2217,-277.125
1764842322.1095455,1,1,-47,-5.875
1764842322.1135452,0,0,4616,577.000
1764842322.1175482,0,0,2720,340.000
1764842322.121545,0,0,-1422,-177.750
1764842322.125546,0,0,-2229,-278.625
1764842322.1295512,1,1,-145,-18.125
1764842322.133544,0,0,4512,564.000
1764842322.1375492,0,0,2899,362.375
1764842322.1415842,0,0,-1370,-171.250
1764842322.1455445,0,0,-2271,-283.875
1764842322.1495411,1,1,-499,-62.375
1764842322.153542,0,0,4112,514.000
1764842322.1575513,0,0,2945,368.125
1764842322.1615434,0,0,-1345,-168.125
1764842322.1655416,0,0,-585,-73.125
1764842322.1695457,1,1,4002,500.250
1764842322.1735435,0,0,3130,391.250
1764842322.1775475,0,0,-1277,-159.625
1764842322.181567,0,0,-2254,-281.750
1764842322.185554,0,0,-452,-56.500
1764842322.189532,1,1,4145,518.125
1764842322.1935327,0,0,3472,434.000
1764842322.1975448,0,0,-1162,-145.250
1764842322.2015462,0,0,-2276,-284.500
1764842322.2055426,0,0,-835,-104.375
1764842322.209537,1,1,3659,457.375
1764842322.2135305,0,0,3443,430.375
1764842322.2175403,0,0,-1148,-143.500
1764842322.2215495,0,0,-2255,-281.875
1764842322.2255456,0,0,-585,-73.125
1764842322.2295396,1,1,3947,493.375
1764842322.2335436,0,0,3851,481.375
1764842322.2375486,0,0,-1005,-125.625
1764842322.2415562,0,0,-2261,-282.625
1764842322.2455506,0,0,-844,-105.500
1764842322.2495456,1,1,3605,450.625
1764842322.253539,0,0,3888,486.000
1764842322.2576282,0,0,-970,-121.250
1764842322.261562,0,0,-2271,-283.875
1764842322.2655463,0,0,-1085,-135.625
1764842322.2695348,1,1,3258,407.250
1764842322.2735305,0,0,3917,489.625
1764842322.2775433,0,0,-926,-115.750
1764842322.2815442,0,0,-2266,-283.250
1764842322.2855446,0,0,-1133,-141.625
1764842322.2895424,1,1,3164,395.500
1764842322.2935307,0,0,4109,513.625
1764842322.2975447,0,0,-823,-102.875
1764842322.3015437,0,0,-2257,-282.125
1764842322.305542,0,0,-1318,-164.750
1764842322.3095417,1,1,2856,357.000
1764842322.3135364,0,0,4143,517.875
1764842322.317543,0,0,-763,-95.375
1764842322.3215406,0,0,-2240,-280.000
1764842322.325543,0,0,-1083,-135.375
1764842322.3295455,1,1,3180,397.500
1764842322.333539,0,0,4587,573.375
1764842322.3375423,0,0,-570,-71.250
1764842322.3415422,0,0,-2221,-277.625
1764842322.345579,0,0,-1282,-160.250
1764842322.349538,1,1,2856,357.000
1764842322.3535385,0,0,4582,572.750
1764842322.3575437,0,0,-523,-65.375
1764842322.3615391,0,0,-2217,-277.125
1764842322.365541,0,0,-1378,-172.250
1764842322.3695424,1,1,2676,334.500
1764842322.3735402,0,0,4681,585.125
1764842322.3775432,0,0,-427,-53.375
1764842322.3815386,0,0,-2204,-275.500
1764842322.3855383,0,0,-1570,-196.250
1764842322.3895416,1,1,2317,289.625
1764842322.3935397,0,0,4636,579.500
1764842322.3975415,0,0,-370,-46.250
1764842322.40154,0,0,-2194,-274.250
1764842322.4055405,0,0,-1475,-184.375
1764842322.4095438,1,1,2474,309.250
1764842322.4135427,0,0,4877,609.625
1764842322.4175448,0,0,-252,-31.500
1764842322.4215271,0,0,-2177,-272.125
1764842322.4255247,0,0,-2073,-259.125
1764842322.4295409,1,1,1089,136.125
1764842322.433539,0,0,4052,506.500
1764842322.4375405,0,0,-423,-52.875
1764842322.4415371,0,0,-2195,-274.375
1764842322.4455726,0,0,-1814,-226.750
1764842322.4495409,1,1,1742,217.750
1764842322.4535408,0,0,4781,597.625
1764842322.4576197,0,0,-48,-6.000
1764842322.4615548,0,0,-2119,-264.875
1764842322.4655404,0,0,-1714,-214.250
1764842322.4695315,1,1,1917,239.625
1764842322.4735298,0,0,5085,635.625
1764842322.4775364,0,0,159,19.875
1764842322.4815423,0,0,-2077,-259.625
1764842322.485541,0,0,-1662,-207.750
1764842322.4895396,1,1,1994,249.250
1764842322.493528,0,0,5301,662.625
1764842322.4975398,0,0,337,42.125
1764842322.5015435,0,0,-2046,-255.750
1764842322.5055416,0,0,-1871,-233.875
1764842322.5095365,1,1,1508,188.500
1764842322.5135355,0,0,5071,633.875
1764842322.5175414,0,0,360,45.000
1764842322.5215402,0,0,-2041,-255.125
1764842322.5255406,0,0,-1837,-229.625
1764842322.5295432,1,1,1567,195.875
1764842322.5335395,0,0,5258,657.250
1764842322.53757,0,0,547,68.375
1764842322.5415301,0,0,-2001,-250.125
1764842322.545563,0,0,-1726,-215.750
1764842322.549542,1,1,1792,224.000
1764842322.553536,0,0,5557,694.625
1764842322.5575345,0,0,784,98.000
1764842322.5615268,0,0,-1957,-244.625
1764842322.5655274,0,0,-1924,-240.500
1764842322.569539,1,1,1305,163.125
1764842322.5735357,0,0,5285,660.625
1764842322.57754,0,0,809,101.125
1764842322.5815406,0,0,-1956,-244.500
1764842322.585541,0,0,-1999,-249.875
1764842322.58954,1,1,1083,135.375
1764842322.5935352,0,0,5208,651.000
1764842322.5975404,0,0,924,115.500
1764842322.6015375,0,0,-1930,-241.250
1764842322.6055403,0,0,-2072,-259.000
1764842322.6095424,1,1,836,104.500
1764842322.613536,0,0,5087,635.875
1764842322.6175406,0,0,1027,128.375
1764842322.6215394,0,0,-1904,-238.000
1764842322.6255398,0,0,-2145,-268.125
1764842322.629536,1,1,551,68.875
1764842322.6335359,0,0,4917,614.625
1764842322.6375427,0,0,1126,140.750
1764842322.6415384,0,0,-1876,-234.500
1764842322.6455371,0,0,-2217,-277.125
1764842322.649555,1,1,195,24.375
1764842322.6535378,0,0,4652,581.500
1764842322.657614,0,0,1199,149.875
1764842322.661551,0,0,-1849,-231.125
1764842322.665537,0,0,-2211,-276.375
1764842322.669531,1,1,199,24.875
1764842322.673527,0,0,4715,589.375
1764842322.6775372,0,0,1423,177.875
1764842322.6815367,0,0,-1786,-223.250
1764842322.6855378,0,0,-2228,-278.500
1764842322.689536,1,1,56,7.000
1764842322.6935265,0,0,4625,578.125
1764842322.6975381,0,0,1607,200.875
1764842322.701539,0,0,-1731,-216.375
1764842322.7055354,0,0,-2147,-268.375
1764842322.7095315,1,1,418,52.250
1764842322.713534,0,0,5018,627.250
1764842322.7175417,0,0,2012,251.500
1764842322.7215385,0,0,-1626,-203.250
1764842322.7255337,0,0,-2187,-273.375
1764842322.7295377,1,1,184,23.000
1764842322.7335346,0,0,4818,602.250
1764842322.7375395,0,0,2146,268.250
1764842322.7415376,0,0,-1592,-199.000
1764842322.7455366,0,0,-2234,-279.250
1764842322.7495666,1,1,-86,-10.750
1764842322.7535336,0,0,4561,570.125
1764842322.7575424,0,0,2258,282.250
1764842322.7615378,0,0,-1557,-194.625
1764842322.7655327,0,0,-2216,-277.000
1764842322.7695348,1,1,11,1.375
1764842322.7735336,0,0,4672,584.000
1764842322.7775433,0,0,2540,317.500
1764842322.7815354,0,0,-1480,-185.000
1764842322.785536,0,0,-466,-58.250
1764842322.7895262,1,1,4157,519.625
1764842322.7935247,0,0,2522,315.250
1764842322.7975364,0,0,-1474,-184.250
1764842322.8015275,0,0,-2257,-282.125
1764842322.805522,0,0,-322,-40.250
1764842322.8095329,1,1,4320,540.000
1764842322.813534,0,0,2852,356.500
1764842322.8175328,0,0,-1372,-171.500
1764842322.821522,0,0,-2248,-281.000
1764842322.8255227,0,0,-333,-41.625
1764842322.8295283,1,1,4301,537.625
1764842322.8335216,0,0,3079,384.875
1764842322.8375385,0,0,-1299,-162.375
1764842322.8415387,0,0,-2277,-284.625
1764842322.8455374,0,0,-687,-85.875
1764842322.849552,1,1,3876,484.500
1764842322.8535368,0,0,3108,388.500
1764842322.862942,0,0,-2273,-284.125
1764842322.865564,0,0,-663,-82.875
1764842322.8695357,1,1,3898,487.250
1764842322.8735666,0,0,3386,423.250
1764842322.8775494,0,0,-1172,-146.500
1764842322.8815389,0,0,-2173,-271.625
1764842322.8855407,0,0,7,0.875
1764842322.8895347,1,1,4621,577.625
1764842322.8935258,0,0,4001,500.125
1764842322.8975413,0,0,-987,-123.375
1764842322.9015405,0,0,-2272,-284.000
1764842322.9055378,0,0,-1062,-132.750
1764842322.90954,1,1,3331,416.375
1764842322.913538,0,0,3520,440.000
1764842322.9175427,0,0,-1106,-138.250
1764842322.9215336,0,0,-2285,-285.625
1764842322.925534,0,0,-1078,-134.750
1764842322.9295409,1,1,3293,411.625
1764842322.9335394,0,0,3739,467.375
1764842322.9375348,0,0,-1005,-125.625
1764842322.9415317,0,0,-2279,-284.875
1764842322.945543,0,0,-1310,-163.750
1764842322.9495401,1,1,2920,365.000
1764842322.95357,0,0,3747,468.375
1764842322.957539,0,0,-960,-120.000
1764842322.9615357,0,0,-2268,-283.500
1764842322.9655335,0,0,-1273,-159.125
1764842322.9695308,1,1,2954,369.250
1764842322.9735246,0,0,4014,501.750
1764842322.9793267,0,0,-830,-103.750
1764842322.9818728,0,0,-2252,-281.500
1764842322.9856272,0,0,-1403,-175.375
1764842322.9895504,1,1,2715,339.375
1764842322.9935355,0,0,4081,510.125
1764842322.9975433,0,0,-759,-94.875
1764842323.001541,0,0,-2239,-279.875
1764842323.0055335,0,0,-1439,-179.875
1764842323.009534,1,1,2626,328.250
1764842323.0135336,0,0,4247,530.875
1764842323.0175383,0,0,-651,-81.375
1764842323.021538,0,0,-2223,-277.875
1764842323.0255353,0,0,-1563,-195.375
1764842323.0295327,1,1,2376,297.000
1764842323.0335321,0,0,4292,536.500
1764842323.0375412,0,0,-575,-71.875
1764842323.0415292,0,0,-2209,-276.125
1764842323.0455225,0,0,-1680,-210.000
1764842323.049533,1,1,2121,265.125
1764842323.0536103,0,0,4325,540.625
1764842323.0575857,0,0,-495,-61.875
1764842323.0616584,0,0,-2192,-274.000
1764842323.0655892,0,0,-1764,-220.500
1764842323.069577,1,1,1913,239.125
1764842323.0735717,0,0,4383,547.875
1764842323.0776076,0,0,-395,-49.375
1764842323.081585,0,0,-2169,-271.125
1764842323.0855823,0,0,-1713,-214.125
1764842323.0895722,1,1,1991,248.875
1764842323.0935595,0,0,4629,578.625
1764842323.0975776,0,0,-236,-29.500
1764842323.1015816,0,0,-2135,-266.875
1764842323.1055787,0,0,-1723,-215.375
1764842323.1095726,1,1,1938,242.250
1764842323.11357,0,0,4779,597.375
1764842323.117579,0,0,-99,-12.375
1764842323.1215923,0,0,-2107,-263.375
1764842323.1255898,0,0,-1824,-228.000
1764842323.1295726,1,1,1680,210.000
1764842323.1335583,0,0,4757,594.625
1764842323.1375744,0,0,-16,-2.000
1764842323.1415772,0,0,-2088,-261.000
1764842323.1455767,0,0,-1823,-227.875
1764842323.1495614,1,1,1651,206.375
1764842323.1536434,0,0,4912,614.000
1764842323.1575422,0,0,142,17.750
1764842323.1615372,0,0,-2052,-256.500
1764842323.1655362,0,0,-1685,-210.625
1764842323.169536,1,1,1927,240.875
1764842323.173534,0,0,5272,659.000
1764842323.1775382,0,0,362,45.250
1764842323.181533,0,0,-2010,-251.250
1764842323.1855354,0,0,-1968,-246.000
1764842323.1895337,1,1,1221,152.625
1764842323.1935334,0,0,4866,608.250
1764842323.1975365,0,0,336,42.000
1764842323.201532,0,0,-2015,-251.875
1764842323.2055314,0,0,-1914,-239.250
1764842323.2095366,1,1,1353,169.125
1764842323.2135303,0,0,5101,637.625
1764842323.2175398,0,0,520,65.000
1764842323.2215343,0,0,-1974,-246.750
1764842323.2255304,0,0,-2162,-270.250
1764842323.2295299,1,1,506,63.250
1764842323.2335303,0,0,4498,562.250
1764842323.237537,0,0,436,54.500
1764842323.2415318,0,0,-1983,-247.875
1764842323.24553,0,0,-1937,-242.125
1764842323.249532,1,1,1238,154.750
1764842323.253531,0,0,5277,659.625
1764842323.2575493,0,0,894,111.750
1764842323.2616022,0,0,-1875,-234.375
1764842323.2655442,0,0,-1962,-245.250
1764842323.2695224,1,1,1119,139.875
1764842323.273523,0,0,5268,658.500
1764842323.2775357,0,0,1025,128.125
1764842323.2815347,0,0,-1849,-231.125
1764842323.2855313,0,0,-2031,-253.875
1764842323.2895253,1,1,891,111.375
1764842323.2935205,0,0,5161,645.125
1764842323.297532,0,0,1129,141.125
1764842323.3015332,0,0,-1828,-228.500
1764842323.3055294,0,0,-2156,-269.500
1764842323.3095286,1,1,426,53.250
1764842323.3135273,0,0,4801,600.125
1764842323.3175328,0,0,1064,133.000
1764842323.3215313,0,0,-1840,-230.000
1764842323.3255336,0,0,-2303,-287.875
1764842323.3295295,1,1,-536,-67.000
1764842323.3335302,0,0,3870,483.750
1764842323.3375416,0,0,879,109.875
1764842323.3415208,0,0,-1866,-233.250
1764842323.3455179,0,0,-2250,-281.250
1764842323.3495295,1,1,-131,-16.375
1764842323.353526,0,0,4399,549.875
1764842323.3575277,0,0,1378,172.250
1764842323.3615186,0,0,-1725,-215.625
1764842323.365518,0,0,-2118,-264.750
1764842323.3695266,1,1,449,56.125
1764842323.3735275,0,0,5025,628.125
1764842323.377533,0,0,1862,232.750
1764842323.3815324,0,0,-1600,-200.000
1764842323.3855324,0,0,-2171,-271.375
1764842323.3895316,1,1,152,19.000
1764842323.3935268,0,0,4772,596.500
1764842323.3975317,0,0,1907,238.375
1764842323.4015331,0,0,-2283,-285.375
1764842323.4055347,0,0,-682,-85.250
1764842323.4095342,1,1,3873,484.125
1764842323.4135256,0,0,1739,217.375
1764842323.4175315,0,0,-1623,-202.875
1764842323.42153,0,0,-2194,-274.250
1764842323.4255316,0,0,21,2.625
1764842323.4295285,1,1,4688,586.000
1764842323.4335287,0,0,2371,296.375
1764842323.4375334,0,0,-1447,-180.875
1764842323.4415307,0,0,-2244,-280.500
1764842323.4455307,0,0,-482,-60.250
1764842323.4495246,1,1,4136,517.000
1764842323.453521,0,0,2311,288.875
1764842323.4575553,0,0,-1458,-182.250
1764842323.46165,0,0,-2254,-281.750
1764842323.4655828,0,0,-568,-71.000
1764842323.4695678,1,1,4045,505.625
1764842323.473559,0,0,2498,312.250
1764842323.4775784,0,0,-1395,-174.375
1764842323.4815722,0,0,-2259,-282.375
1764842323.485575,0,0,-731,-91.375
1764842323.4895687,1,1,3844,480.500
1764842323.4935613,0,0,2647,330.875
1764842323.4975758,0,0,-1339,-167.375
1764842323.501573,0,0,-2262,-282.750
1764842323.505569,0,0,-913,-114.125
1764842323.5095718,1,1,3602,450.250
1764842323.5135682,0,0,2742,342.750
1764842323.5175774,0,0,-1296,-162.000
1764842323.5215738,0,0,-2261,-282.625
1764842323.5255682,0,0,-1029,-128.625
1764842323.5295696,1,1,3428,428.500
1764842323.5335708,0,0,2898,362.250
1764842323.537579,0,0,-1227,-153.375
1764842323.5415573,0,0,-2245,-280.625
1764842323.545553,0,0,-970,-121.250
1764842323.549568,1,1,3495,436.875
1764842323.5535698,0,0,3158,394.750
1764842323.5575814,0,0,-1132,-141.500
1764842323.5615342,0,0,-2246,-280.750
1764842323.5655258,0,0,-1423,-177.875
1764842323.5695271,1,1,2775,346.875
1764842323.573527,0,0,2987,373.375
1764842323.5775318,0,0,-1149,-143.625
1764842323.581529,0,0,-2232,-279.000
1764842323.585525,0,0,-1114,-139.250
1764842323.5895238,1,1,3240,405.000
1764842323.593522,0,0,3539,442.375
1764842323.597529,0,0,-951,-118.875
1764842323.6015272,0,0,-2207,-275.875
1764842323.605529,0,0,-1293,-161.625
1764842323.6095262,1,1,2936,367.000
1764842323.6135209,0,0,3599,449.875
1764842323.6175296,0,0,-900,-112.500
1764842323.6215298,0,0,-2184,-273.000
1764842323.6255274,0,0,-1020,-127.500
1764842323.629519,1,1,3324,415.500
1764842323.6335201,0,0,4083,510.375
1764842323.6375299,0,0,-718,-89.750
1764842323.6415408,0,0,-2171,-271.375
1764842323.6455376,0,0,-1365,-170.625
1764842323.649524,1,1,2759,344.875
1764842323.6535099,0,0,3950,493.750
1764842323.6575356,0,0,-724,-90.500
1764842323.661605,0,0,-2174,-271.750
1764842323.6655354,0,0,-1445,-180.625
1764842323.6695225,1,1,2597,324.625
1764842323.6735127,0,0,4070,508.750
1764842323.6775231,0,0,-640,-80.000
1764842323.6815274,0,0,-2156,-269.500
1764842323.6855307,0,0,-1407,-175.875
1764842323.6895225,1,1,2635,329.375
1764842323.69351,0,0,4317,539.625
1764842323.6975288,0,0,-512,-64.000
1764842323.7015269,0,0,-2134,-266.750
1764842323.70553,0,0,-1432,-179.000
1764842323.7095213,1,1,2560,320.000
1764842323.7135153,0,0,4491,561.375
1764842323.7175257,0,0,-400,-50.000
1764842323.7215269,0,0,-2112,-264.000
1764842323.7255275,0,0,-1347,-168.375
1764842323.7295387,1,1,2676,334.500
1764842323.7335267,0,0,4791,598.875
1764842323.7375236,0,0,-241,-30.125
1764842323.7415156,0,0,-2087,-260.875
1764842323.7455103,0,0,-1364,-170.500
1764842323.749525,1,1,2618,327.250
1764842323.7535214,0,0,4940,617.500
1764842323.7575383,0,0,-136,-17.000
1764842323.761514,0,0,-2077,-259.625
1764842323.7655098,0,0,-1584,-198.000
1764842323.7695258,1,1,2199,274.875
1764842323.7735248,0,0,4832,604.000
1764842323.7775307,0,0,-103,-12.875
1764842323.781524,0,0,-2076,-259.500
1764842323.785523,0,0,-1707,-213.375
1764842323.7895186,1,1,1930,241.250
1764842323.7935135,0,0,4812,601.500
1764842323.7975252,0,0,-34,-4.250
1764842323.8015242,0,0,-2063,-257.875
1764842323.8055255,0,0,-1731,-216.375
1764842323.8095226,1,1,1851,231.375
1764842323.8135128,0,0,4936,617.000
1764842323.8175223,0,0,100,12.500
1764842323.8215272,0,0,-2036,-254.500
1764842323.8255224,0,0,-1804,-225.500
1764842323.8295217,1,1,1659,207.375
1764842323.833522,0,0,4952,619.000
1764842323.8375301,0,0,200,25.000
1764842323.8415267,0,0,-2017,-252.125
1764842323.8455224,0,0,-1895,-236.875
1764842323.8495238,1,1,1410,176.250
1764842323.8535213,0,0,4901,612.625
1764842323.857602,0,0,279,34.875
1764842323.8681712,1,1,1323,165.375
1764842323.8700721,1,1,1323,165.375
1764842323.8735676,0,0,4981,622.625
1764842323.8775742,0,0,424,53.000
1764842323.8815546,0,0,-1965,-245.625
1764842323.885553,0,0,-1795,-224.375
1764842323.8895645,1,1,1603,200.375
1764842323.8935647,0,0,5346,668.250
1764842323.8975675,0,0,682,85.250
1764842323.9015536,0,0,-1910,-238.750
1764842323.9055524,0,0,-1864,-233.000
1764842323.9095716,1,1,1404,175.500
1764842323.9135613,0,0,5304,663.000
1764842323.9175656,0,0,780,97.500
1764842323.9215665,0,0,-1894,-236.750
1764842323.9255695,0,0,-1996,-249.500
1764842323.9295673,1,1,1026,128.250
1764842323.933558,0,0,5102,637.750
1764842323.9375665,0,0,836,104.500
1764842323.9415674,0,0,-1884,-235.500
1764842323.9455667,0,0,-2084,-260.500
1764842323.949564,1,1,721,90.125
1764842323.9535594,0,0,4934,616.750
1764842323.9575574,0,0,916,114.500
1764842323.9615493,0,0,-1864,-233.000
1764842323.9655142,0,0,-2080,-260.000
1764842323.9695208,1,1,712,89.000
1764842323.9735184,0,0,5022,627.750
1764842323.9775574,0,0,1112,139.000
1764842323.9818892,0,0,-2126,-265.750
1764842323.9855993,0,0,-2126,-265.750
1764842323.9895334,1,1,509,63.625
1764842323.993521,0,0,4918,614.750
1764842323.9975238,0,0,1251,156.375
1764842324.001521,0,0,-1779,-222.375
1764842324.0055196,0,0,-2038,-254.750
1764842324.00952,1,1,801,100.125
1764842324.0135195,0,0,5256,657.000
1764842324.0175195,0,0,-1701,-212.625
1764842324.021521,0,0,-2178,-272.250
1764842324.0255227,0,0,218,27.250
1764842324.0295162,1,1,4754,594.250
1764842324.0335224,0,0,1539,192.375
1764842324.0375454,0,0,-1711,-213.875
1764842324.0415123,0,0,-2185,-273.125
1764842324.0455089,0,0,183,22.875
1764842324.0495224,1,1,4767,595.875
1764842324.0535185,0,0,1761,220.125
1764842324.0575192,0,0,-1651,-206.375
1764842324.0615454,0,0,-2214,-276.750
1764842324.0655851,0,0,-16,-2.000
1764842324.0695267,1,1,4599,574.875
1764842324.0735114,0,0,1915,239.375
1764842324.077521,0,0,-1607,-200.875
1764842324.0815208,0,0,-2188,-273.500
1764842324.0855217,0,0,107,13.375
1764842324.0895143,1,1,4758,594.750
1764842324.0935097,0,0,2097,262.125
1764842324.0975242,0,0,-1562,-195.250
1764842324.1015248,0,0,-2320,-290.000
1764842324.1055198,0,0,-1382,-172.750
1764842324.1095152,1,1,2899,362.375
1764842324.1135085,0,0,1436,179.500
1764842324.1175199,0,0,-1708,-213.500
1764842324.1215231,0,0,-2243,-280.375
1764842324.1255207,0,0,-232,-29.000
1764842324.1295207,1,1,4432,554.000
1764842324.133521,0,0,2541,317.625
1764842324.1375275,0,0,-1390,-173.750
1764842324.141512,0,0,-2223,-277.875
1764842324.145508,0,0,-376,-47.000
1764842324.149522,1,1,4262,532.750
1764842324.1535168,0,0,2703,337.875
1764842324.1575193,0,0,-1339,-167.375
1764842324.1615436,0,0,-2207,-275.875
1764842324.1655133,0,0,-291,-36.375
1764842324.1695213,1,1,4356,544.500
1764842324.1735153,0,0,2997,374.625
1764842324.1775208,0,0,-1251,-156.375
1764842324.1815248,0,0,-2196,-274.500
1764842324.1855204,0,0,-272,-34.000
1764842324.1895165,1,1,4364,545.500
1764842324.1935139,0,0,3223,402.875
1764842324.1975226,0,0,-1184,-148.000
1764842324.20152,0,0,-2241,-280.125
1764842324.205518,0,0,-726,-90.750
1764842324.2095194,1,1,3818,477.250
1764842324.2135155,0,0,3176,397.000
1764842324.217518,0,0,-1185,-148.125
1764842324.2215185,0,0,-2236,-279.500
1764842324.225521,0,0,-649,-81.125
1764842324.2295203,1,1,3898,487.250
1764842324.2335129,0,0,3466,433.250
1764842324.2375169,0,0,-1084,-135.500
1764842324.2415168,0,0,-2219,-277.375
1764842324.24552,0,0,-578,-72.250
1764842324.2495189,1,1,3966,495.750
1764842324.2535126,0,0,3740,467.500
1764842324.257519,0,0,-988,-123.500
1764842324.2615168,0,0,-2228,-278.500
1764842324.2655866,0,0,-803,-100.375
1764842324.2695298,1,1,3664,458.000
1764842324.2735085,0,0,3812,476.500
1764842324.2775233,0,0,-948,-118.500
1764842324.2815182,0,0,-2240,-280.000
1764842324.2855222,0,0,-1056,-132.000
1764842324.289513,1,1,3303,412.875
1764842324.2935052,0,0,3814,476.750
1764842324.297536,0,0,-923,-115.375
1764842324.3015234,0,0,-2248,-281.000
1764842324.305519,0,0,-1413,-176.625
1764842324.3095217,1,1,2735,341.875
1764842324.3135185,0,0,3697,462.125
1764842324.3175247,0,0,-916,-114.500
1764842324.3215182,0,0,-2241,-280.125
1764842324.3255188,0,0,-1288,-161.000
1764842324.3295224,1,1,2911,363.875
1764842324.3335173,0,0,4039,504.875
1764842324.3375223,0,0,-766,-95.750
1764842324.3415205,0,0,-2219,-277.375
1764842324.3455262,0,0,-1381,-172.625
1764842324.3495147,1,1,2728,341.000
1764842324.3535056,0,0,4169,521.125
1764842324.3575194,0,0,-671,-83.875
1764842324.3615184,0,0,-2198,-274.750
1764842324.3655345,0,0,-1258,-157.250
1764842324.369511,1,1,2895,361.875
1764842324.3735025,0,0,4490,561.250
1764842324.377516,0,0,-521,-65.125
1764842324.3815215,0,0,-2180,-272.500
1764842324.3855164,0,0,-1454,-181.750
1764842324.3895147,1,1,2542,317.750
1764842324.3935146,0,0,4477,559.625
1764842324.3975215,0,0,-466,-58.250
1764842324.4015164,0,0,-2171,-271.375
1764842324.4055119,0,0,-1496,-187.000
1764842324.4095147,1,1,2440,305.000
1764842324.4135115,0,0,4613,576.625
1764842324.4175196,0,0,-358,-44.750
1764842324.4215152,0,0,-2151,-268.875
1764842324.425517,0,0,-1436,-179.500
1764842324.4295137,1,1,2517,314.625
1764842324.4335103,0,0,4873,609.125
1764842324.4375184,0,0,-203,-25.375
1764842324.4415166,0,0,-2120,-265.000
1764842324.4455173,0,0,-1286,-160.750
1764842324.4495127,1,1,2736,342.000
1764842324.453508,0,0,5213,651.625
1764842324.457515,0,0,-17,-2.125
1764842324.461517,0,0,-2098,-262.250
1764842324.4656224,0,0,-1549,-193.625
1764842324.4695296,1,1,2262,282.750
1764842324.473503,0,0,5065,633.125
1764842324.4775138,0,0,9,1.125
1764842324.48152,0,0,-2100,-262.500
1764842324.4855163,0,0,-1627,-203.375
1764842324.4895108,1,1,2096,262.000
1764842324.4935026,0,0,5118,639.750
1764842324.497516,0,0,117,14.625
1764842324.501519,0,0,-2082,-260.250
1764842324.5055168,0,0,-1693,-211.625
1764842324.5095189,1,1,1941,242.625
1764842324.5135138,0,0,5181,647.625
1764842324.517518,0,0,248,31.000
1764842324.5215168,0,0,-2056,-257.000
1764842324.5255175,0,0,-1538,-192.250
1764842324.5295188,1,1,2217,277.125
1764842324.5335152,0,0,5529,691.125
1764842324.5375135,0,0,472,59.000
1764842324.5415103,0,0,-2018,-252.250
1764842324.5455134,0,0,-1603,-200.375
1764842324.5495138,1,1,2068,258.500
1764842324.5535069,0,0,5567,695.875
1764842324.5575166,0,0,596,74.500
1764842324.5615153,0,0,-2001,-250.125
1764842324.5655537,0,0,-1757,-219.625
1764842324.5695112,1,1,1739,217.375
1764842324.5735037,0,0,5452,681.500
1764842324.577513,0,0,676,84.500
1764842324.5815163,0,0,-1991,-248.875
1764842324.585514,0,0,-1762,-220.250
1764842324.5895123,1,1,1713,214.125
1764842324.5935135,0,0,5554,694.250
1764842324.5975199,0,0,848,106.000
1764842324.6015122,0,0,-1959,-244.875
1764842324.605511,0,0,-1745,-218.125
1764842324.6095152,1,1,1732,216.500
1764842324.6135128,0,0,5670,708.750
1764842324.6175168,0,0,1022,127.750
1764842324.6215117,0,0,-1932,-241.500
1764842324.6255116,0,0,-1996,-249.500
1764842324.629511,1,1,1100,137.500
1764842324.6335108,0,0,5267,658.375
1764842324.637515,0,0,-1934,-241.750
1764842324.6415145,0,0,-2027,-253.375
1764842324.645513,0,0,1002,125.250
1764842324.6495123,1,1,5271,658.875
1764842324.6535106,0,0,1187,148.375
1764842324.6575153,0,0,-1896,-237.000
1764842324.6615148,0,0,-2040,-255.000
1764842324.6655986,0,0,938,117.250
1764842324.6695266,1,1,5285,660.625
1764842324.6735013,0,0,1353,169.125
1764842324.6775146,0,0,-1859,-232.375
1764842324.681515,0,0,-2013,-251.625
1764842324.6855135,0,0,1003,125.375
1764842324.689506,1,1,5406,675.750
1764842324.6935015,0,0,1578,197.250
1764842324.697511,0,0,-1810,-226.250
1764842324.7015185,0,0,-2161,-270.125
1764842324.7055147,0,0,480,60.000
1764842324.7095137,1,1,4991,623.875
1764842324.7135108,0,0,1591,198.875
1764842324.7175202,0,0,-1806,-225.750
1764842324.7215152,0,0,-2188,-273.500
1764842324.7255156,0,0,350,43.750
1764842324.7295141,1,1,4916,614.500
1764842324.7335093,0,0,1765,220.625
1764842324.7375138,0,0,-1760,-220.000
1764842324.741515,0,0,-2236,-279.500
1764842324.7455144,0,0,91,11.375
1764842324.7495153,1,1,4697,587.125
1764842324.7535076,0,0,1881,235.125
1764842324.757514,0,0,-1724,-215.500
1764842324.7615128,0,0,-2248,-281.000
1764842324.7655241,0,0,-8,-1.000
1764842324.7695181,1,1,4626,578.250
1764842324.7735064,0,0,2081,260.125
1764842324.7775135,0,0,-1664,-208.000
1764842324.7815118,0,0,-2261,-282.625
1764842324.785513,0,0,-129,-16.125
1764842324.789504,1,1,4516,564.500
1764842324.7934978,0,0,2267,283.375
1764842324.7975092,0,0,-1606,-200.750
1764842324.8015118,0,0,-2270,-283.750
1764842324.805514,0,0,-224,-28.000
1764842324.8095129,1,1,4425,553.125
1764842324.8135087,0,0,2452,306.500
1764842324.8175123,0,0,-1546,-193.250
1764842324.8215103,0,0,-2229,-278.625
1764842324.8255122,0,0,-3,-0.375
1764842324.8295047,1,1,4657,582.125
1764842324.8334987,0,0,2816,352.000
1764842324.8375125,0,0,-1441,-180.125
1764842324.8415108,0,0,-2288,-286.000
1764842324.8455226,0,0,-498,-62.250
1764842324.8495111,1,1,4117,514.625
1764842324.8535004,0,0,2790,348.750
1764842324.8575099,0,0,-1435,-179.375
1764842324.8615117,0,0,-2298,-287.250
1764842324.8708954,0,0,3992,499.000
1764842324.8735259,0,0,2886,360.750
1764842324.8775165,0,0,-1396,-174.500
1764842324.8814976,0,0,-2318,-289.750
1764842324.8854978,0,0,-1007,-125.875
1764842324.88951,1,1,3466,433.250
1764842324.893507,0,0,2924,365.500
1764842324.897509,0,0,-1351,-168.875
1764842324.9014983,0,0,-2316,-289.500
1764842324.9054947,0,0,-1137,-142.125
1764842324.909512,1,1,3271,408.875
1764842324.9135082,0,0,3081,385.125
1764842324.917516,0,0,-1270,-158.750
1764842324.9215114,0,0,-2271,-283.875
1764842324.9255073,0,0,-606,-75.750
1764842324.9295077,1,1,3938,492.250
1764842324.9335093,0,0,3724,465.500
1764842324.937513,0,0,-1055,-131.875
1764842324.9415095,0,0,-2273,-284.125
1764842324.945513,0,0,-995,-124.375
1764842324.9495153,1,1,3416,427.000
1764842324.9535046,0,0,3668,458.500
1764842324.9575107,0,0,-1043,-130.375
1764842324.9614968,0,0,-2246,-280.750
1764842324.9654965,0,0,-625,-78.125
1764842324.9695058,1,1,3865,483.125
1764842324.973506,0,0,4165,520.625
1764842324.9775386,0,0,-867,-108.375
1764842324.9818816,0,0,-2252,-281.500
1764842324.985599,0,0,-991,-123.875
1764842324.9895248,1,1,3372,421.500
1764842324.9935074,0,0,4106,513.250
1764842324.9975133,0,0,-853,-106.625
1764842325.0015132,0,0,-2259,-282.375
1764842325.0055106,0,0,-1155,-144.375
1764842325.0095098,1,1,3120,390.000
1764842325.0135057,0,0,4177,522.125
1764842325.0175092,0,0,-791,-98.875
1764842325.0215118,0,0,-2255,-281.875
1764842325.0255098,0,0,-1317,-164.625
1764842325.0295126,1,1,2850,356.250
1764842325.033505,0,0,4232,529.000
1764842325.0377114,0,0,-725,-90.625
1764842325.0415037,0,0,-2245,-280.625
1764842325.0454974,0,0,-1391,-173.875
1764842325.0495012,1,1,2705,338.125
1764842325.0534964,0,0,4360,545.000
1764842325.0574946,0,0,-626,-78.250
1764842325.0614932,0,0,-2231,-278.875
1764842325.0654962,0,0,-1421,-177.625
1764842325.0695834,1,1,2626,328.250
1764842325.073511,0,0,4509,563.625
1764842325.077509,0,0,-522,-65.250
1764842325.0814955,0,0,-2211,-276.375
1764842325.0854979,0,0,-1315,-164.375
1764842325.0894995,1,1,2772,346.500
1764842325.0934958,0,0,4811,601.375
1764842325.0974948,0,0,-362,-45.250
1764842325.1014946,0,0,-2192,-274.000
1764842325.1054952,0,0,-1735,-216.875
1764842325.1095123,1,1,1987,248.375
1764842325.1135073,0,0,4463,557.875
1764842325.1175096,0,0,-405,-50.625
1764842325.121506,0,0,-2195,-274.375
1764842325.1255052,0,0,-1788,-223.500
1764842325.1295094,1,1,1846,230.750
1764842325.1335075,0,0,4578,572.250
1764842325.137511,0,0,-270,-33.750
1764842325.1415052,0,0,-2167,-270.875
1764842325.145505,0,0,-1738,-217.250
1764842325.1495013,1,1,1917,239.625
1764842325.1534958,0,0,4799,599.875
1764842325.1575065,0,0,-109,-13.625
1764842325.1615057,0,0,-2136,-267.000
1764842325.1655178,0,0,-1760,-220.000
1764842325.1695416,1,1,1837,229.625
1764842325.1734982,0,0,4923,615.375
1764842325.177507,0,0,35,4.375
1764842325.1815088,0,0,-2105,-263.125
1764842325.1855066,0,0,-1761,-220.125
1764842325.1895006,1,1,1804,225.500
1764842325.1934917,0,0,5058,632.250
1764842325.197506,0,0,175,21.875
1764842325.2015092,0,0,-2078,-259.750
1764842325.2055056,0,0,-1979,-247.375
1764842325.209506,1,1,1238,154.750
1764842325.213506,0,0,4778,597.250
1764842325.2175097,0,0,194,24.250
1764842325.2215095,0,0,-2068,-258.500
1764842325.2255044,0,0,-1838,-229.750
1764842325.229507,1,1,1579,197.375
1764842325.2335036,0,0,5194,649.250
1764842325.2375104,0,0,462,57.750
1764842325.241508,0,0,-2011,-251.375
1764842325.245507,0,0,-1981,-247.625
1764842325.2495081,1,1,1174,146.750
1764842325.2535014,0,0,510,63.750
1764842325.25751,0,0,-1998,-249.750
1764842325.2615097,0,0,-1949,-243.625
1764842325.2655072,0,0,1242,155.250
1764842325.2695844,1,1,5180,647.500
1764842325.2735171,0,0,714,89.250
1764842325.2775111,0,0,-1953,-244.125
1764842325.281499,0,0,-1982,-247.750
1764842325.2854946,0,0,1118,139.750
1764842325.289498,1,1,5193,649.125
1764842325.2934923,0,0,868,108.500
1764842325.2974956,0,0,-1919,-239.875
1764842325.3014922,0,0,-2106,-263.250
1764842325.3054974,0,0,691,86.375
1764842325.30951,1,1,4927,615.875
1764842325.3135011,0,0,921,115.125
1764842325.3175097,0,0,-1903,-237.875
1764842325.3215077,0,0,-2099,-262.375
1764842325.3255048,0,0,693,86.625
1764842325.3295064,1,1,5016,627.000
1764842325.3335016,0,0,1113,139.125
1764842325.3375058,0,0,-1854,-231.750
1764842325.3415043,0,0,-2144,-268.000
1764842325.3455055,0,0,488,61.000
1764842325.3495092,1,1,4909,613.625
1764842325.3535066,0,0,1251,156.375
1764842325.3575113,0,0,-1818,-227.250
1764842325.3614914,0,0,-2154,-269.250
1764842325.3654916,0,0,425,53.125
1764842325.3695166,1,1,4914,614.250
1764842325.373507,0,0,1448,181.000
1764842325.3775,0,0,-1766,-220.750
1764842325.3814895,0,0,-2143,-267.875
1764842325.38549,0,0,441,55.125
1764842325.3895075,1,1,4984,623.000
1764842325.3935056,0,0,1681,210.125
1764842325.3975108,0,0,-1707,-213.375
1764842325.401505,0,0,-2214,-276.750
1764842325.4055026,0,0,71,8.875
1764842325.4095042,1,1,4662,582.750
1764842325.4135032,0,0,1733,216.625
1764842325.417508,0,0,-1690,-211.250
1764842325.421502,0,0,-2200,-275.000
1764842325.4255016,0,0,136,17.000
1764842325.4295025,1,1,4760,595.000
1764842325.4335017,0,0,2007,250.875
1764842325.4375055,0,0,-1615,-201.875
1764842325.4415016,0,0,-2192,-274.000
1764842325.4455025,0,0,134,16.750
1764842325.4495046,1,1,4782,597.750
1764842325.4535027,0,0,2237,279.625
1764842325.4575052,0,0,-1554,-194.250
1764842325.4615052,0,0,-2260,-282.500
1764842325.465502,0,0,-324,-40.500
1764842325.469584,1,1,4314,539.250
1764842325.4735568,0,0,2240,280.000
1764842325.4775083,0,0,-1546,-193.250
1764842325.481493,0,0,-2235,-279.375
1764842325.4854894,0,0,-150,-18.750
1764842325.4894996,1,1,4514,564.250
1764842325.4935,0,0,2587,323.375
1764842325.4975073,0,0,-1445,-180.625
1764842325.5015023,0,0,-2264,-283.000
1764842325.505502,0,0,-459,-57.375
1764842325.509505,1,1,4168,521.000
1764842325.5135005,0,0,2663,332.875
1764842325.5175023,0,0,-1414,-176.750
1764842325.5215042,0,0,-2264,-283.000
1764842325.5255048,0,0,-479,-59.875
1764842325.5295012,1,1,4142,517.750
1764842325.5334978,0,0,2900,362.500
1764842325.5375059,0,0,-1334,-166.750
1764842325.541495,0,0,-2255,-281.875
1764842325.5454915,0,0,-484,-60.500
1764842325.5495012,1,1,4123,515.375
1764842325.5534995,0,0,3145,393.125
1764842325.5575056,0,0,-1251,-156.375
1764842325.561505,0,0,-2246,-280.750
1764842325.5655048,0,0,-491,-61.375
1764842325.5695038,1,1,4101,512.625
1764842325.5735345,0,0,3379,422.375
1764842325.5775034,0,0,-1171,-146.375
1764842325.5815058,0,0,-2264,-283.000
1764842325.5855021,0,0,-788,-98.500
1764842325.5895019,1,1,3721,465.125
1764842325.5934958,0,0,3423,427.875
1764842325.597504,0,0,-1138,-142.250
1764842325.6014993,0,0,-2270,-283.750
1764842325.6055014,0,0,-916,-114.500
1764842325.6095018,1,1,3542,442.750
1764842325.6134975,0,0,3524,440.500
1764842325.6175017,0,0,-1089,-136.125
1764842325.6214979,0,0,-2277,-284.625
1764842325.6255012,0,0,-1194,-149.250
1764842325.6294994,1,1,3141,392.625
1764842325.6334977,0,0,3475,434.375
1764842325.6375005,0,0,-1079,-134.875
1764842325.641497,0,0,-2281,-285.125
1764842325.6455028,0,0,-1749,-218.625
1764842325.649502,1,1,2129,266.125
1764842325.6534965,0,0,3145,393.125
1764842325.657503,0,0,-1114,-139.250
1764842325.6615024,0,0,-2263,-282.875
1764842325.665508,0,0,-1094,-136.750
1764842325.6695807,1,1,3220,402.500
1764842325.6735487,0,0,4134,516.750
1764842325.6775074,0,0,-753,-94.125
1764842325.6814873,0,0,-2197,-274.625
1764842325.6854858,0,0,-903,-112.875
1764842325.6895015,1,1,3446,430.750
1764842325.6935015,0,0,4480,560.000
1764842325.6974986,0,0,-616,-77.000
1764842325.7014863,0,0,-2199,-274.875
1764842325.7054858,0,0,-1317,-164.625
1764842325.7095034,1,1,2816,352.000
1764842325.7135005,0,0,4318,539.750
1764842325.7175057,0,0,-620,-77.500
1764842325.721502,0,0,-2203,-275.375
1764842325.7254992,0,0,-1356,-169.500
1764842325.7295008,1,1,2730,341.250
1764842325.7335007,0,0,4460,557.500
1764842325.7375045,0,0,-526,-65.750
1764842325.7415028,0,0,-2189,-273.625
1764842325.7455263,0,0,-1410,-176.250
1764842325.7495031,1,1,2612,326.500
1764842325.7534897,0,0,4596,574.500
1764842325.7574987,0,0,-423,-52.875
1764842325.761503,0,0,-2173,-271.625
1764842325.7655022,0,0,-1476,-184.500
1764842325.7694914,1,1,2470,308.750
1764842325.7734861,0,0,4695,586.875
1764842325.7775028,0,0,-328,-41.000
1764842325.7815013,0,0,-2161,-270.125
1764842325.7854998,0,0,-1722,-215.250
1764842325.7894905,1,1,1975,246.875
1764842325.793484,0,0,4533,566.625
1764842325.797496,0,0,-311,-38.875
1764842325.8015018,0,0,-2155,-269.375
1764842325.8055005,0,0,-1692,-211.500
1764842325.8094983,1,1,2011,251.375
1764842325.8134937,0,0,4750,593.750
1764842325.817497,0,0,-156,-19.500
1764842325.821501,0,0,-2124,-265.500
1764842325.8254983,0,0,-1811,-226.375
1764842325.8294973,1,1,1723,215.375
1764842325.8334959,0,0,4707,588.375
1764842325.837498,0,0,-87,-10.875
1764842325.8414993,0,0,-2107,-263.375
1764842325.8455017,0,0,-1907,-238.375
1764842325.8494973,1,1,1462,182.750
1764842325.8534832,0,0,4675,584.375
1764842325.857493,0,0,-3,-0.375
1764842325.8615022,0,0,-2086,-260.750
1764842325.8655007,0,0,-1853,-231.625
1764842325.8748496,0,0,225,28.125
1764842325.8775353,0,0,-2033,-254.125
1764842325.881502,0,0,-1565,-195.625
1764842325.8855004,0,0,2138,267.250
1764842325.889494,1,1,5520,690.000
1764842325.8934884,0,0,516,64.500
1764842325.8974953,0,0,-1981,-247.625
1764842325.9014988,0,0,-1941,-242.625
1764842325.9055002,0,0,1270,158.750
1764842325.9094958,1,1,4983,622.875
1764842325.9134884,0,0,431,53.875
1764842325.917496,0,0,-2001,-250.125
1764842325.921496,0,0,-2014,-251.750
1764842325.925499,0,0,1050,131.250
1764842325.9294999,1,1,4936,617.000
1764842325.9334962,0,0,548,68.500
1764842325.937498,0,0,-1971,-246.375
1764842325.9414976,0,0,-1897,-237.125
1764842325.9454958,0,0,1347,168.375
1764842325.9494977,1,1,5305,663.125
1764842325.9534945,0,0,822,102.750
1764842325.9575026,0,0,-1910,-238.750
1764842325.961494,0,0,-1898,-237.250
1764842325.9654934,0,0,1312,164.000
1764842325.9694958,1,1,5387,673.375
1764842325.9734993,0,0,997,124.625
1764842325.97759,0,0,-1875,-234.375
1764842325.9818645,0,0,-1991,-248.875
1764842325.9855824,0,0,1037,129.625
1764842325.9895053,1,1,5256,657.000
1764842325.9934967,0,0,1099,137.375
1764842325.997505,0,0,-1855,-231.875
1764842326.0014973,0,0,-2034,-254.250
1764842326.005492,0,0,890,111.250
1764842326.0094917,1,1,5216,652.000
1764842326.0134945,0,0,1251,156.375
1764842326.017502,0,0,-1821,-227.625
1764842326.0215006,0,0,-2109,-263.625
1764842326.0254955,0,0,614,76.750
1764842326.0294952,1,1,5038,629.750
1764842326.0334952,0,0,1352,169.000
1764842326.037497,0,0,-1798,-224.750
1764842326.0415232,0,0,-2105,-263.125
1764842326.0455132,0,0,611,76.375
1764842326.0498335,0,0,5105,638.125
1764842326.054281,0,0,1593,199.125
1764842326.057521,0,0,-1736,-217.000
1764842326.061485,0,0,-1914,-239.250
1764842326.0654833,0,0,1191,148.875
1764842326.0695002,1,1,5654,706.750
1764842326.0735655,0,0,2013,251.625
1764842326.0775502,0,0,-1644,-205.500
1764842326.0814855,0,0,-2206,-275.750
1764842326.0854836,0,0,127,15.875
1764842326.089494,1,0,4723,590.375
1764842326.0934904,0,0,1801,225.125
1764842326.0974894,0,0,-1700,-212.500
1764842326.1014838,0,0,-2202,-275.250
1764842326.105483,0,0,164,20.500
1764842326.1094913,1,0,4791,598.875
1764842326.113483,0,0,2054,256.750
1764842326.117502,0,0,-1631,-203.875
1764842326.1214988,0,0,-2249,-281.125
1764842326.1255004,0,0,-136,-17.000
1764842326.1294985,1,1,4506,563.250
1764842326.1334922,0,0,2139,267.375
1764842326.1374962,0,0,-1603,-200.375
1764842326.1414983,0,0,-2224,-278.000
1764842326.145498,0,0,-3,-0.375
1764842326.149499,1,1,4657,582.125
1764842326.1534905,0,0,2455,306.875
1764842326.1574967,0,0,-1513,-189.125
1764842326.161493,0,0,-2246,-280.750
1764842326.165494,0,0,-195,-24.375
1764842326.169495,1,1,4462,557.750
1764842326.1734996,0,0,2601,325.125
1764842326.1775184,0,0,-1466,-183.250
1764842326.181487,0,0,-2267,-283.375
1764842326.1854827,0,0,-384,-48.000
1764842326.1894848,0,0,4254,531.750
1764842326.193482,0,0,2736,342.000
1764842326.197485,0,0,-1420,-177.500
1764842326.2014794,0,0,-2283,-285.375
1764842326.2054787,0,0,-583,-72.875
1764842326.209496,1,1,4021,502.625
1764842326.2134945,0,0,2864,358.000
1764842326.217496,0,0,-1369,-171.125
1764842326.2214923,0,0,-2302,-287.750
1764842326.225491,0,0,-933,-116.625
1764842326.229493,0,0,3571,446.375
1764842326.233491,0,0,2850,356.250
1764842326.2374964,0,0,-1350,-168.750
1764842326.2414908,0,0,-2293,-286.625
1764842326.2454946,0,0,-867,-108.375
1764842326.249496,1,0,3644,455.500
1764842326.253491,0,0,3154,394.250
1764842326.2574956,0,0,-1237,-154.625
1764842326.261492,0,0,-2289,-286.125
1764842326.2654908,0,0,-1073,-134.125
1764842326.2694879,1,1,3343,417.875
1764842326.2735658,0,0,3232,404.000
1764842326.277553,0,0,-1185,-148.125
1764842326.281487,0,0,-2275,-284.375
1764842326.285478,0,0,-981,-122.625
1764842326.2894816,0,0,3451,431.375
1764842326.293483,0,0,3554,444.250
1764842326.2974799,0,0,-1059,-132.375
1764842326.3014803,0,0,-2265,-283.125
1764842326.305478,0,0,-1128,-141.000
1764842326.3094995,0,0,3218,402.250
1764842326.3134918,0,0,3668,458.500
1764842326.3175015,0,0,-990,-123.750
1764842326.321496,0,0,-2257,-282.125
1764842326.3254943,0,0,-1199,-149.875
1764842326.3294961,0,0,3087,385.875
1764842326.3334897,0,0,3819,477.375
1764842326.3374941,0,0,-908,-113.500
1764842326.341498,0,0,-2248,-281.000
1764842326.3454943,0,0,-1337,-167.125
1764842326.349491,0,0,2846,355.750
1764842326.3534865,0,0,3917,489.625
1764842326.3574963,0,0,-832,-104.000
1764842326.361494,0,0,-2233,-279.125
1764842326.3654933,0,1,-1308,-163.500
1764842326.3694928,0,0,2867,358.375
1764842326.3734875,0,0,4118,514.750
1764842326.377493,0,0,-735,-91.875
1764842326.3815086,0,0,-2223,-277.875
1764842326.3855038,1,1,-1697,-212.125
1764842326.3894918,0,0,2160,270.000
1764842326.3934772,0,0,3830,478.750
1764842326.397494,0,0,-782,-97.750
1764842326.4014952,0,0,-2225,-278.125
1764842326.405494,1,1,-2078,-259.750
1764842326.409486,0,0,1148,143.500
1764842326.4134784,0,0,3338,417.250
1764842326.4174898,0,0,-848,-106.000
1764842326.421491,0,0,-2218,-277.250
1764842326.4254916,1,1,-1549,-193.625
1764842326.4294918,0,0,2367,295.875
1764842326.4334862,0,0,4497,562.125
1764842326.43749,0,0,-386,-48.250
1764842326.4414878,0,0,-2133,-266.625
1764842326.4454894,1,1,-1802,-225.250
1764842326.449493,0,0,1793,224.125
1764842326.453486,0,0,4265,533.125
1764842326.4574904,0,0,-398,-49.750
1764842326.4614897,0,0,-2131,-266.375
1764842326.4654913,1,1,-1785,-223.125
1764842326.4694893,0,0,1802,225.250
1764842326.4735563,0,0,4467,558.375
1764842326.4775064,0,0,-255,-31.875
1764842326.481493,0,0,-2098,-262.250
1764842326.485477,1,1,-1839,-229.875
1764842326.4894888,0,0,4544,568.000
1764842326.493491,0,0,-142,-17.750
1764842326.497489,0,0,-2071,-258.875
1764842326.5014746,0,0,-1947,-243.375
1764842326.5054739,1,1,1327,165.875
1764842326.5094976,0,0,4454,556.750
1764842326.5134902,0,0,-91,-11.375
1764842326.5174942,0,0,-2054,-256.750
1764842326.5214915,0,0,-1943,-242.875
1764842326.5254898,1,1,1303,162.875
1764842326.529492,0,0,4611,576.375
1764842326.5334883,0,0,63,7.875
1764842326.537489,0,0,-2016,-252.000
1764842326.5414922,0,0,-1972,-246.500
1764842326.545478,1,1,1185,148.125
1764842326.5494957,0,0,4664,583.000
1764842326.5534902,0,0,178,22.250
1764842326.5574946,0,0,-1987,-248.375
1764842326.5614922,0,0,-2085,-260.625
1764842326.5654917,1,1,781,97.625
1764842326.569491,0,0,4445,555.625
1764842326.5734863,0,0,192,24.000
1764842326.5774949,0,0,-1976,-247.000
1764842326.5815063,0,0,-2179,-272.375
1764842326.5855098,1,1,344,43.000
1764842326.589488,0,0,4170,521.250
1764842326.593475,0,0,197,24.625
1764842326.5974889,0,0,-1961,-245.125
1764842326.6014907,0,0,-2219,-277.375
1764842326.6054895,1,1,75,9.375
1764842326.6094804,0,0,4041,505.125
1764842326.6134746,0,0,281,35.125
1764842326.6174862,0,0,-1925,-240.625
1764842326.621489,0,0,-2199,-274.875
1764842326.6254876,1,1,97,12.125
1764842326.629486,0,0,4194,524.250
1764842326.6334832,0,0,488,61.000
1764842326.6374872,0,0,-1858,-232.250
1764842326.6414893,0,0,-2115,-264.375
1764842326.6454895,1,1,428,53.500
1764842326.6494856,0,0,4650,581.250
1764842326.6534803,0,0,832,104.000
1764842326.657486,0,0,-1765,-220.625
1764842326.6614883,0,0,-2160,-270.000
1764842326.6654866,1,1,131,16.375
1764842326.6694827,0,0,4452,556.500
1764842326.673546,0,0,908,113.500
1764842326.677505,0,0,-1740,-217.500
1764842326.6814766,0,0,-2154,-269.250
1764842326.68551,1,1,118,14.750
1764842326.6894884,0,0,4528,566.000
1764842326.693484,0,0,1106,138.250
1764842326.6974833,0,0,-1684,-210.500
1764842326.701473,0,0,-2176,-272.000
1764842326.7054727,1,1,-80,-10.000
1764842326.7094927,0,0,4390,548.750
1764842326.7134857,0,0,1205,150.625
1764842326.7174919,0,0,-1653,-206.625
1764842326.7214863,0,0,-2199,-274.875
1764842326.725488,1,1,-290,-36.250
1764842326.7294898,0,0,4215,526.875
1764842326.7334874,0,0,1305,163.125
1764842326.73749,0,0,-1618,-202.250
1764842326.7414873,0,0,-2209,-276.125
1764842326.745485,1,1,-447,-55.875
1764842326.7494903,0,0,4085,510.625
1764842326.753487,0,0,1437,179.625
1764842326.7574866,0,0,-1574,-196.750
1764842326.7614844,0,0,-2203,-275.375
1764842326.7654874,1,1,-489,-61.125
1764842326.7694895,0,0,4077,509.625
1764842326.773483,0,0,1643,205.375
1764842326.7774901,0,0,-1510,-188.750
1764842326.7814856,0,0,-2200,-275.000
1764842326.7855184,1,1,-591,-73.875
1764842326.7894795,0,0,3985,498.125
1764842326.7934742,0,0,1825,228.125
1764842326.7974885,0,0,-1452,-181.500
1764842326.8014865,0,0,-2205,-275.625
1764842326.805518,1,1,-788,-98.500
1764842326.8094862,0,0,3747,468.375
1764842326.813475,0,0,1911,238.875
1764842326.8174849,0,0,-1419,-177.375
1764842326.8214893,0,0,-2200,-275.000
1764842326.8254838,1,1,-867,-108.375
1764842326.8294756,0,0,3651,456.375
1764842326.8334725,0,0,2083,260.375
1764842326.8374867,0,0,-1360,-170.000
1764842326.8414867,0,0,-2198,-274.750
1764842326.8454843,1,1,-1063,-132.875
1764842326.8494837,0,0,3377,422.125
1764842326.8534818,0,0,2168,271.000
1764842326.857487,0,0,-1321,-165.125
1764842326.8614876,0,0,-2197,-274.625
1764842326.8654838,1,1,-1367,-170.875
1764842326.8694792,0,0,2884,360.500
1764842326.8788927,0,0,-1312,-164.000
1764842326.881505,0,0,-2174,-271.750
1764842326.885528,1,1,-980,-122.500
1764842326.8894815,0,0,3485,435.625
1764842326.8934715,0,0,2724,340.500
1764842326.8974895,0,0,-1121,-140.125
1764842326.9014888,0,0,-2151,-268.875
1764842326.9054902,1,1,-1390,-173.750
1764842326.9094772,0,0,2809,351.125
1764842326.9134681,0,0,2565,320.625
1764842326.9174876,0,0,-1148,-143.500
1764842326.9214873,0,0,-2148,-268.500
1764842326.9254873,1,1,-1326,-165.750
1764842326.929491,0,0,2904,363.000
1764842326.9334862,0,0,2863,357.875
1764842326.9374936,0,0,-1037,-129.625
1764842326.9414868,0,0,-2125,-265.625
1764842326.945487,1,1,-1388,-173.500
1764842326.9494886,0,0,2771,346.375
1764842326.9534845,0,0,3030,378.750
1764842326.9574938,0,0,-963,-120.375
1764842326.9614875,0,0,-2107,-263.375
1764842326.9654863,1,1,-1458,-182.250
1764842326.969492,0,0,2613,326.625
1764842326.9734852,0,0,3166,395.750
1764842326.9811707,0,0,-895,-111.875
1764842326.9832103,0,0,-1566,-195.750
1764842326.9855354,1,1,-1566,-195.750
1764842326.9894798,0,0,2373,296.625
1764842326.9934728,0,0,3243,405.375
1764842326.9974816,0,0,-841,-105.125
1764842327.00147,0,0,-2076,-259.500
1764842327.005477,1,1,-1683,-210.375
1764842327.0094848,0,0,2096,262.000
1764842327.0134742,0,0,3291,411.375
1764842327.0174859,0,0,-788,-98.500
1764842327.0214841,0,0,-2058,-257.250
1764842327.0254827,1,1,-1701,-212.625
1764842327.0294876,0,0,2017,252.125
1764842327.033484,0,0,3449,431.125
1764842327.037486,0,0,-700,-87.500
1764842327.0414965,0,0,-2032,-254.000
1764842327.045471,1,1,-1647,-205.875
1764842327.049493,0,0,2101,262.625
1764842327.0534873,0,0,3747,468.375
1764842327.057487,0,0,-561,-70.125
1764842327.061482,0,0,-1999,-249.875
1764842327.0654783,1,1,-1781,-222.625
1764842327.0694864,0,0,1745,218.125
1764842327.0734818,0,0,3697,462.125
1764842327.0775676,0,0,-529,-66.125
1764842327.0814981,0,0,-1988,-248.500
1764842327.0854876,1,1,-1832,-229.000
1764842327.0895174,0,0,1574,196.750
1764842327.0934734,0,0,3781,472.625
1764842327.0974984,0,0,-447,-55.875
1764842327.1014864,0,0,-1964,-245.500
1764842327.1054826,1,1,1353,169.125
1764842327.1094737,0,0,3806,475.750
1764842327.113471,0,0,-377,-47.125
1764842327.117487,0,0,-1941,-242.625
1764842327.1214886,0,0,-1915,-239.375
1764842327.1254835,1,1,1243,155.375
1764842327.1294885,0,0,3905,488.125
1764842327.1334848,0,0,-281,-35.125
1764842327.137493,0,0,-1912,-239.000
1764842327.141488,0,0,-2015,-251.875
1764842327.1454866,1,1,845,105.625
1764842327.1494744,0,0,3748,468.500
1764842327.1534693,0,0,-265,-33.125
1764842327.1574914,0,0,-1899,-237.375
1764842327.1614878,0,0,-1996,-249.500
1764842327.165487,1,1,860,107.500
1764842327.169487,0,0,3945,493.125
1764842327.1734846,0,0,-114,-14.250
1764842327.1774902,0,0,-1854,-231.750
1764842327.1814866,0,0,-1981,-247.625
1764842327.1854842,1,1,863,107.875
1764842327.1894844,0,0,4081,510.125
1764842327.193484,0,0,-13,-1.625
1764842327.1974943,0,0,-1823,-227.875
1764842327.201492,0,0,-2173,-271.625
1764842327.2054992,1,1,-272,-34.000
1764842327.209483,0,0,3096,387.000
1764842327.2134678,0,0,-271,-33.875
1764842327.2174833,0,0,-1869,-233.625
1764842327.2214859,0,0,-2074,-259.250
1764842327.2254858,1,1,337,42.125
1764842327.2294753,0,0,3949,493.625
1764842327.2334669,0,0,171,21.375
1764842327.23749,0,0,-1741,-217.625
1764842327.241484,0,0,-2014,-251.750
1764842327.245484,1,1,474,59.250
1764842327.2494905,0,0,4233,529.125
1764842327.2534873,0,0,382,47.750
1764842327.2574887,0,0,-1681,-210.125
1764842327.2614813,0,0,-2003,-250.375
1764842327.26548,1,1,446,55.750
1764842327.2694864,0,0,4344,543.000
1764842327.273481,0,0,534,66.750
1764842327.2775636,0,0,-1641,-205.125
1764842327.2814972,0,0,-2072,-259.000
1764842327.2854884,1,1,2,0.250
1764842327.2895122,0,0,4003,500.375
1764842327.293472,0,0,509,63.625
1764842327.297487,0,0,-1643,-205.375
1764842327.301485,0,0,-2060,-257.500
1764842327.3054817,1,1,36,4.500
1764842327.3094723,0,0,4157,519.625
1764842327.3134675,0,0,695,86.875
1764842327.3175027,0,0,-1588,-198.500
1764842327.321485,0,0,-2088,-261.000
1764842327.3254833,1,1,-268,-33.500
1764842327.32949,0,0,3910,488.750
1764842327.3334854,0,0,718,89.750
1764842327.33749,0,0,-1576,-197.000
1764842327.3414812,0,0,-2085,-260.625
1764842327.3454812,1,1,-322,-40.250
1764842327.3494833,0,0,3947,493.375
1764842327.3534877,0,0,878,109.750
1764842327.3574932,0,0,-1525,-190.625
1764842327.3614824,0,0,-2086,-260.750
1764842327.3654807,1,1,-469,-58.625
1764842327.3694868,0,0,3843,480.375
1764842327.3734825,0,0,973,121.625
1764842327.3774908,0,0,-1493,-186.625
1764842327.3814836,0,0,-2111,-263.875
1764842327.3854802,1,1,-1029,-128.625
1764842327.3894799,0,0,3127,390.875
1764842327.393498,0,0,790,98.750
1764842327.397493,0,0,-1529,-191.125
1764842327.4014888,0,0,-2092,-261.500
1764842327.405487,1,1,-761,-95.125
1764842327.4094856,0,0,3594,449.250
1764842327.4134886,0,0,1196,149.500
1764842327.417491,0,0,-1403,-175.375
1764842327.4214694,0,0,-2068,-258.500
1764842327.4254675,1,1,-919,-114.875
1764842327.4294846,0,0,3410,426.250
1764842327.4334803,0,0,1293,161.625
1764842327.4374862,0,0,-1368,-171.000
1764842327.4414692,0,0,-2056,-257.000
1764842327.4454663,1,1,-931,-116.375
1764842327.4494832,0,0,3426,428.250
1764842327.453481,0,0,1503,187.875
1764842327.4574852,0,0,-1299,-162.375
1764842327.4614809,0,0,-2036,-254.500
1764842327.4654794,1,1,-929,-116.125
1764842327.4694784,0,0,3456,432.000
1764842327.4734774,0,0,1743,217.875
1764842327.4775622,0,0,-1225,-153.125
1764842327.481492,0,0,-2020,-252.500
1764842327.4854841,1,1,-979,-122.375
1764842327.4894772,0,0,3398,424.750
1764842327.4935005,0,0,1922,240.250
1764842327.4974792,0,0,-1170,-146.250
1764842327.501485,0,0,-2012,-251.500
1764842327.5054812,1,1,-1159,-144.875
1764842327.5094693,0,0,3108,388.500
1764842327.513463,0,0,1975,246.875
1764842327.5174875,0,0,-1148,-143.500
1764842327.5214813,0,0,-2007,-250.875
1764842327.5254822,1,1,-1344,-168.000
1764842327.5294757,0,0,2778,347.250
1764842327.533466,0,0,2007,250.875
1764842327.5374713,0,0,-1127,-140.875
1764842327.5414894,0,0,-1998,-249.750
1764842327.5454757,1,1,-1471,-183.875
1764842327.5494733,0,0,2523,315.375
1764842327.5534673,0,0,2081,260.125
1764842327.5574834,0,0,-1089,-136.125
1764842327.5614805,0,0,-1979,-247.375
1764842327.5654812,1,1,-1279,-159.875
1764842327.569476,0,0,2879,359.875
1764842327.573466,0,0,2547,318.375
1764842327.577481,0,0,-938,-117.250
1764842327.58148,0,0,-1941,-242.625
1764842327.5854766,1,1,-1246,-155.750
1764842327.5894794,0,0,2917,364.625
1764842327.593514,0,0,2804,350.500
1764842327.597492,0,0,-852,-106.500
1764842327.6014798,0,0,-1925,-240.625
1764842327.6054766,1,1,-1513,-189.125
1764842327.6094978,0,0,2371,296.375
1764842327.6134822,0,0,2692,336.500
1764842327.6174874,0,0,-869,-108.625
1764842327.6214783,0,0,-1925,-240.625
1764842327.6254754,1,1,-1344,-168.000
1764842327.6294758,0,0,2695,336.875
1764842327.6334774,0,0,3160,395.000
1764842327.637486,0,0,-709,-88.625
1764842327.64148,0,0,-1889,-236.125
1764842327.6454768,1,1,-1468,-183.500
1764842327.6494815,0,0,2408,301.000
1764842327.6534803,0,0,3180,397.500
1764842327.6574852,0,0,-686,-85.750
1764842327.6614783,0,0,-1886,-235.750
1764842327.6654773,1,1,-1580,-197.500
1764842327.669478,0,0,2146,268.250
1764842327.6734753,0,0,3234,404.250
1764842327.6775606,0,0,-646,-80.750
1764842327.6814938,0,0,-1876,-234.500
1764842327.6854787,1,1,-1630,-203.750
1764842327.689471,0,0,1993,249.125
1764842327.6934595,0,0,3348,418.500
1764842327.697481,0,0,-580,-72.500
1764842327.7014809,0,0,-1860,-232.500
1764842327.705479,1,1,-1598,-199.750
1764842327.709465,0,0,2039,254.875
1764842327.7134593,0,0,3612,451.500
1764842327.7174842,0,0,-463,-57.875
1764842327.7214828,0,0,-1708,-213.500
1764842327.72548,1,1,1724,215.500
1764842327.7294807,0,0,3585,448.125
1764842327.733476,0,0,-436,-54.500
1764842327.7374814,0,0,-1826,-228.250
1764842327.7414804,0,0,-1583,-197.875
1764842327.7454786,1,1,2007,250.875
1764842327.7494771,0,0,4025,503.125
1764842327.7534742,0,0,-252,-31.500
1764842327.757485,0,0,-1784,-223.000
1764842327.761479,0,0,-1806,-225.750
1764842327.7654784,1,1,1367,170.875
1764842327.7694838,0,0,3705,463.125
1764842327.7734776,0,0,-314,-39.250
1764842327.777483,0,0,-1801,-225.125
1764842327.7814772,0,0,-1768,-221.000
1764842327.7854757,1,1,1463,182.875
1764842327.7894697,0,0,3998,499.750
1764842327.7934582,0,0,-160,-20.000
1764842327.797559,0,0,-1763,-220.375
1764842327.801524,0,0,-1822,-227.750
1764842327.8055217,1,1,1252,156.500
1764842327.8095274,0,0,4018,502.250
1764842327.8135278,0,0,-94,-11.750
1764842327.817526,0,0,-1747,-218.375
1764842327.8215034,0,0,-1840,-230.000
1764842327.8255043,1,1,1161,145.125
1764842327.8295255,0,0,4130,516.250
1764842327.833518,0,0,11,1.375
1764842327.8375185,0,0,-1722,-215.250
1764842327.8415012,0,0,-1876,-234.500
1764842327.8454988,1,1,995,124.375
1764842327.8495212,0,0,4167,520.875
1764842327.8535225,0,0,98,12.250
1764842327.857524,0,0,-1701,-212.625
1764842327.8615143,0,0,-1917,-239.625
1764842327.8655293,1,1,797,99.625
1764842327.8695064,0,0,4147,518.375
1764842327.8735018,0,0,164,20.500
1764842327.884045,0,0,-1914,-239.250
1764842327.8859477,1,1,779,97.375
1764842327.889522,0,0,4296,537.000
1764842327.8935058,0,0,307,38.375
1764842327.8975213,0,0,-1648,-206.000
1764842327.90148,0,0,-1937,-242.125
1764842327.905474,1,1,629,78.625
1764842327.9094727,0,0,4302,537.750
1764842327.9134612,0,0,398,49.750
1764842327.9174814,0,0,-1626,-203.250
1764842327.9214766,0,0,-2007,-250.875
1764842327.925472,1,1,248,31.000
1764842327.9294772,0,0,4053,506.625
1764842327.9334743,0,0,396,49.500
1764842327.9374826,0,0,-1626,-203.250
1764842327.9414725,0,0,-1978,-247.250
1764842327.9454677,1,1,366,45.750
1764842327.9494722,0,0,4321,540.125
1764842327.9534698,0,0,619,77.375
1764842327.9574804,0,0,-1564,-195.500
1764842327.9614723,0,0,-1986,-248.250
1764842327.9654725,1,1,243,30.375
1764842327.969474,0,0,4314,539.250
1764842327.9734669,0,0,733,91.625
1764842327.9811401,0,0,-1535,-191.875
1764842327.983171,0,0,-1990,-248.750
1764842327.9854782,1,1,173,21.625
1764842327.989461,0,0,4364,545.500
1764842327.993456,0,0,887,110.875
1764842327.9974666,0,0,-1496,-187.000
1764842328.0014596,0,0,-2008,-251.000
1764842328.0054579,1,1,10,1.250
1764842328.0094576,0,0,4280,535.000
1764842328.013456,0,0,979,122.375
1764842328.0174744,0,0,-1473,-184.125
1764842328.021476,0,0,-1997,-249.625
1764842328.0254745,1,1,43,5.375
1764842328.0294762,0,0,4419,552.375
1764842328.0334785,0,0,1198,149.750
1764842328.0374992,0,0,-1417,-177.125
1764842328.0414703,0,0,-2008,-251.000
1764842328.0454605,1,1,-96,-12.000
1764842328.0494776,0,0,4332,541.500
1764842328.0534728,0,0,1278,159.750
1764842328.0574715,0,0,-1401,-175.125
1764842328.06147,0,0,-2085,-260.625
1764842328.0654728,1,1,-910,-113.750
1764842328.0694652,0,0,3328,416.000
1764842328.073455,0,0,945,118.125
1764842328.077475,0,0,-1486,-185.750
1764842328.0815363,0,0,-2102,-262.750
1764842328.0854843,1,1,-1170,-146.250
1764842328.0894725,0,0,2994,374.250
1764842328.093461,0,0,1002,125.250
1764842328.0974717,0,0,-1452,-181.500
1764842328.1014712,0,0,-2063,-257.875
1764842328.105473,1,1,-739,-92.375
1764842328.1094656,0,0,3692,461.500
1764842328.1134586,0,0,1572,196.500
1764842328.1174757,0,0,-1282,-160.250
1764842328.1214845,0,0,-1986,-248.250
1764842328.12547,1,1,-328,-41.000
1764842328.1294765,0,0,4261,532.625
1764842328.1334739,0,0,2077,259.625
1764842328.1374774,0,0,-1143,-142.875
1764842328.141468,0,0,-1976,-247.000
1764842328.1454682,1,1,-451,-56.375
1764842328.149473,0,0,4124,515.500
1764842328.153475,0,0,2219,277.375
1764842328.1574852,0,0,-1113,-139.125
1764842328.1614594,0,0,-2004,-250.500
1764842328.1654537,1,1,-760,-95.000
1764842328.1694708,0,0,3727,465.875
1764842328.1734746,0,0,2219,277.375
1764842328.1774688,0,0,-1117,-139.625
1764842328.181455,0,0,-2008,-251.000
1764842328.185453,1,1,-750,-93.750
1764842328.189461,0,0,3750,468.750
1764842328.1934571,0,0,2462,307.750
1764842328.1974845,0,0,-1049,-131.125
1764842328.2014759,0,0,-2017,-252.125
1764842328.205468,1,1,-1112,-139.000
1764842328.2094755,0,0,3208,401.000
1764842328.213474,0,0,2378,297.250
1764842328.2174795,0,0,-1069,-133.625
1764842328.2214725,0,0,-2020,-252.500
1764842328.225471,1,1,-1059,-132.375
1764842328.2294676,0,0,3289,411.125
1764842328.2334695,0,0,2665,333.125
1764842328.2374797,0,0,-978,-122.250
1764842328.2414718,0,0,-2000,-250.000
1764842328.2454722,1,1,-1024,-128.000
1764842328.249475,0,0,3333,416.625
1764842328.2534695,0,0,2924,365.500
1764842328.2574782,0,0,-896,-112.000
1764842328.2614715,0,0,-1993,-249.125
1764842328.2654705,1,1,-1200,-150.000
1764842328.2694578,0,0,3032,379.000
1764842328.2734523,0,0,2973,371.625
1764842328.2774723,0,0,-872,-109.000
1764842328.2815456,0,0,-1991,-248.875
1764842328.2854872,1,1,-1179,-147.375
1764842328.2894678,0,0,3053,381.625
1764842328.2934558,0,0,3238,404.750
1764842328.297475,0,0,-780,-97.500
1764842328.3014739,0,0,-1977,-247.125
1764842328.3054702,1,1,-1347,-168.375
1764842328.3094628,0,0,2733,341.625
1764842328.3134542,0,0,3271,408.875
1764842328.317472,0,0,-753,-94.125
1764842328.321472,0,0,-1975,-246.875
1764842328.3254707,1,1,-1383,-172.875
1764842328.3294733,0,0,2643,330.375
1764842328.3334668,0,0,3458,432.250
1764842328.3374758,0,0,-1959,-244.875
1764842328.341472,0,0,-1372,-171.500
1764842328.3454711,1,1,2634,329.250
1764842328.3494678,0,0,3688,461.000
1764842328.3534691,0,0,-577,-72.125
1764842328.3574767,0,0,-1941,-242.625
1764842328.3614693,0,0,-1383,-172.875
1764842328.3654673,1,1,2584,323.000
1764842328.3694725,0,0,3893,486.625
1764842328.373469,0,0,-484,-60.500
1764842328.377466,0,0,-1926,-240.750
1764842328.3814666,0,0,-1394,-174.250
1764842328.385464,1,1,2537,317.125
1764842328.3894696,0,0,4086,510.750
1764842328.3934698,0,0,-391,-48.875
1764842328.3974755,0,0,-1913,-239.125
1764842328.4014695,0,0,-1466,-183.250
1764842328.405466,1,1,2372,296.500
1764842328.4094727,0,0,4191,523.875
1764842328.4134712,0,0,-321,-40.125
1764842328.4174726,0,0,-1905,-238.125
1764842328.4214635,0,0,-1583,-197.875
1764842328.4254644,1,1,2105,263.125
1764842328.4294682,0,0,4206,525.750
1764842328.4334698,0,0,-273,-34.125
1764842328.4374769,0,0,-1900,-237.500
1764842328.4414525,0,0,-1632,-204.000
1764842328.4454508,1,1,1975,246.875
1764842328.4494689,0,0,4315,539.375
1764842328.4534698,0,0,-186,-23.250
1764842328.4574666,0,0,-1885,-235.625
1764842328.4614525,0,0,-1706,-213.250
1764842328.4654481,1,1,1775,221.875
1764842328.469471,0,0,4358,544.750
1764842328.4734695,0,0,-115,-14.375
1764842328.4774761,0,0,-1873,-234.125
1764842328.4815345,0,0,-1783,-222.875
1764842328.4854782,1,1,1554,194.250
1764842328.4894629,0,0,4382,547.750
1764842328.4934528,0,0,-41,-5.125
1764842328.4974818,0,0,-1857,-232.125
1764842328.501471,0,0,-1733,-216.625
1764842328.505468,1,1,1652,206.500
1764842328.5094578,0,0,4639,579.875
1764842328.5134523,0,0,119,14.875
1764842328.5174694,0,0,-1824,-228.000
1764842328.5214696,0,0,-1844,-230.500
1764842328.5254693,1,1,1322,165.250
1764842328.5294683,0,0,4547,568.375
1764842328.5334635,0,0,166,20.750
1764842328.5374672,0,0,-1817,-227.125
1764842328.5414605,0,0,-1894,-236.750
1764842328.5454507,1,1,1149,143.625
1764842328.5494514,0,0,4566,570.750
1764842328.5534666,0,0,259,32.375
1764842328.5574765,0,0,-1795,-224.375
1764842328.5614674,0,0,-1882,-235.250
1764842328.565464,1,1,1154,144.250
1764842328.5694706,0,0,4730,591.250
1764842328.573465,0,0,412,51.500
1764842328.577461,0,0,-1761,-220.125
1764842328.5814536,0,0,-1926,-240.750
1764842328.5854523,1,1,981,122.625
1764842328.5894723,0,0,4729,591.125
1764842328.593466,0,0,517,64.625
1764842328.5974743,0,0,-1739,-217.375
1764842328.6015823,0,0,-1930,-241.250
1764842328.605517,1,1,941,117.625
1764842328.609517,0,0,4833,604.125
1764842328.6135101,0,0,667,83.375
1764842328.617515,0,0,-1705,-213.125
1764842328.621506,0,0,-2035,-254.375
1764842328.6255088,1,1,516,64.500
1764842328.6295094,0,0,4553,569.125
1764842328.6335099,0,0,671,83.875
1764842328.6375158,0,0,-1706,-213.250
1764842328.641509,0,0,-2020,-252.500
1764842328.645508,1,1,567,70.875
1764842328.6495166,0,0,4728,591.000
1764842328.653513,0,0,878,109.750
1764842328.6575181,0,0,-1654,-206.750
1764842328.6615076,0,0,-2005,-250.625
1764842328.6655064,1,1,579,72.375
1764842328.6695113,0,0,4849,606.125
1764842328.673507,0,0,1070,133.750
1764842328.6775155,0,0,-1608,-201.000
1764842328.6815803,0,0,-2081,-260.125
1764842328.6855237,1,1,197,24.625
1764842328.6895077,0,0,4559,569.875
1764842328.6934917,0,0,1098,137.250
1764842328.6975102,0,0,-1604,-200.500
1764842328.7014935,0,0,-2074,-259.250
1764842328.7054656,1,1,226,28.250
1764842328.7094593,0,0,4675,584.375
1764842328.7134516,0,0,1315,164.375
1764842328.7174697,0,0,-1548,-193.500
1764842328.7214668,0,0,-2091,-261.375
1764842328.7254639,1,1,83,10.375
1764842328.7294674,0,0,4592,574.000
1764842328.7334635,0,0,1454,181.750
1764842328.7374716,0,0,-1513,-189.125
1764842328.741466,0,0,-2107,-263.375
1764842328.7454615,1,1,-47,-5.875
1764842328.7494602,0,0,4515,564.375
1764842328.7534654,0,0,1610,201.250
1764842328.757473,0,0,-1474,-184.250
1764842328.7614658,0,0,-2120,-265.000
1764842328.7654617,1,1,-167,-20.875
1764842328.7694666,0,0,4423,552.875
1764842328.7734616,0,0,1751,218.875
1764842328.7774696,0,0,-1437,-179.625
1764842328.7814634,0,0,-2162,-270.250
1764842328.7854614,1,1,-533,-66.625
1764842328.7894506,0,0,4023,502.875
1764842328.7934449,0,0,1761,220.125
1764842328.7974575,0,0,-1433,-179.125
1764842328.8014789,0,0,-2115,-264.375
1764842328.8054664,1,1,-174,-21.750
1764842328.8094666,0,0,4479,559.875
1764842328.8134634,0,0,2217,277.125
1764842328.8174686,0,0,-1307,-163.375
1764842328.8214643,0,0,-2119,-264.875
1764842328.8254628,1,1,-321,-40.125
1764842328.8294604,0,0,4319,539.875
1764842328.8334582,0,0,2371,296.375
1764842328.837466,0,0,-1267,-158.375
1764842328.8414643,0,0,-2135,-266.875
1764842328.8454766,1,1,-481,-60.125
1764842328.8494587,0,0,4139,517.375
1764842328.8534436,0,0,2517,314.625
1764842328.8574584,0,0,-1227,-153.375
1764842328.861465,0,0,-2138,-267.250
1764842328.8654628,1,1,-530,-66.250
1764842328.869451,0,0,4080,510.000
1764842328.8734438,0,0,2725,340.625
1764842328.877465,0,0,-1167,-145.875
1764842328.8868475,1,1,4214,526.750
1764842328.8895314,0,0,4214,526.750
1764842328.8934767,0,0,3090,386.250
1764842328.897466,0,0,-1059,-132.375
1764842328.9014816,0,0,-2033,-254.125
1764842328.9054482,1,1,61,7.625
1764842328.9094567,0,0,4740,592.500
1764842328.913449,0,0,3572,446.500
1764842328.9174528,0,0,-929,-116.125
1764842328.9214473,0,0,-2128,-266.000
1764842328.9254487,1,1,-710,-88.750
1764842328.9294684,0,0,3824,478.000
1764842328.933462,0,0,3274,409.250
1764842328.9374623,0,0,-1022,-127.750
1764842328.9414594,0,0,-2176,-272.000
1764842328.9454567,1,1,-1111,-138.875
1764842328.9494581,0,0,3275,409.375
1764842328.9534569,0,0,3150,393.750
1764842328.9574661,0,0,-2193,-274.125
1764842328.9614615,0,0,-1599,-199.875
1764842328.9654737,1,1,2408,301.000
1764842328.9694579,0,0,2917,364.625
1764842328.973445,0,0,-1076,-134.500
1764842328.9774947,0,0,-2169,-271.125
1764842328.9818304,0,0,-951,-118.875
1764842328.9855466,1,1,3450,431.250
1764842328.9894702,0,0,3850,481.250
1764842328.9934585,0,0,-762,-95.250
1764842328.997468,0,0,-2120,-265.000
1764842329.0014985,0,0,-1072,-134.000
1764842329.005458,1,1,3237,404.625
1764842329.0094593,0,0,3948,493.500
1764842329.0134587,0,0,-709,-88.625
1764842329.0174615,0,0,-2113,-264.125
1764842329.02146,0,0,-1028,-128.500
1764842329.0254567,1,1,3278,409.750
1764842329.029459,0,0,4206,525.750
1764842329.0334597,0,0,-604,-75.500
1764842329.037661,0,0,-2113,-264.125
1764842329.0414581,0,0,-1319,-164.875
1764842329.0454443,1,1,2799,349.875
1764842329.049446,0,0,4126,515.750
1764842329.0534453,0,0,-595,-74.375
1764842329.0574481,0,0,-2111,-263.875
1764842329.0614457,0,0,-1204,-150.500
1764842329.065444,1,1,2962,370.250
1764842329.069446,0,0,4460,557.500
1764842329.0734437,0,0,-448,-56.000
1764842329.0774493,0,0,-2095,-261.875
1764842329.0814438,0,0,-1474,-184.250
1764842329.0855155,1,1,2479,309.875
1764842329.0894628,0,0,4341,542.625
1764842329.0934453,0,0,-444,-55.500
1764842329.0974615,0,0,-2100,-262.500
1764842329.1014981,0,0,-1598,-199.750
1764842329.105461,1,1,2220,277.500
1764842329.1094472,0,0,4369,546.125
1764842329.1134427,0,0,-378,-47.250
1764842329.1174679,0,0,-2086,-260.750
1764842329.1214633,0,0,-1630,-203.750
1764842329.1254601,1,1,2129,266.125
1764842329.1294641,0,0,4510,563.750
1764842329.1334603,0,0,-267,-33.375
1764842329.137464,0,0,-2065,-258.125
1764842329.1414573,0,0,-1764,-220.500
1764842329.1454716,1,1,1811,226.375
1764842329.1494591,0,0,4462,557.750
1764842329.153464,0,0,-218,-27.250
1764842329.1574676,0,0,-2053,-256.625
1764842329.1614454,0,0,-1824,-228.000
1764842329.165446,1,1,1641,205.125
1764842329.169462,0,0,4508,563.500
1764842329.1734595,0,0,-128,-16.000
1764842329.1774547,0,0,-2032,-254.000
1764842329.181442,0,0,-1888,-236.000
1764842329.1854439,1,1,1443,180.375
1764842329.1894648,0,0,4544,568.000
1764842329.1934612,0,0,-25,-3.125
1764842329.1974645,0,0,-2005,-250.625
1764842329.2014575,0,0,-1892,-236.500
1764842329.2054973,1,1,1394,174.250
1764842329.2094667,0,0,4685,585.625
1764842329.2134578,0,0,127,15.875
1764842329.2174633,0,0,-1969,-246.125
1764842329.2214572,0,0,-1882,-235.250
1764842329.2254555,1,1,1382,172.750
1764842329.2294488,0,0,4843,605.375
1764842329.2334425,0,0,287,35.875
1764842329.2374713,0,0,-1932,-241.500
1764842329.2414594,0,0,-1843,-230.375
1764842329.2454567,1,1,1450,181.250
1764842329.2494624,0,0,5058,632.250
1764842329.2534602,0,0,476,59.500
1764842329.2574654,0,0,-1891,-236.375
1764842329.2614565,0,0,-1826,-228.250
1764842329.2654564,1,1,1465,183.125
1764842329.2694585,0,0,5220,652.500
1764842329.2734597,0,0,655,81.875
1764842329.2774653,0,0,-1854,-231.750
1764842329.2814603,0,0,-1877,-234.625
1764842329.2855234,1,1,1306,163.250
1764842329.2894585,0,0,5207,650.875
1764842329.2934463,0,0,763,95.375
1764842329.297463,0,0,-1835,-229.375
1764842329.3014598,0,0,-1848,-231.000
1764842329.3054943,1,1,1371,171.375
1764842329.309447,0,0,5384,673.000
1764842329.313442,0,0,965,120.625
1764842329.3174696,0,0,-1795,-224.375
1764842329.3214607,0,0,-1958,-244.750
1764842329.3254561,1,1,1043,130.375
1764842329.3294635,0,0,5220,652.500
1764842329.3334599,0,0,1047,130.875
1764842329.337464,0,0,-1782,-222.750
1764842329.341457,0,0,-2015,-251.875
1764842329.3454564,1,1,854,106.750
1764842329.3494558,0,0,5145,643.125
1764842329.3534546,0,0,1162,145.250
1764842329.3574653,0,0,-1760,-220.000
1764842329.361464,0,0,-2101,-262.625
1764842329.3654826,1,1,529,66.125
1764842329.3694518,0,0,4927,615.875
1764842329.373442,0,0,1236,154.500
1764842329.377455,0,0,-1743,-217.875
1764842329.3814576,0,0,-2179,-272.375
1764842329.385457,1,1,158,19.750
1764842329.3894491,0,0,4642,580.250
1764842329.39344,0,0,1306,163.250
1764842329.3974588,0,0,-1722,-215.250
1764842329.401461,0,0,-2051,-256.375
1764842329.4054718,1,1,684,85.500
1764842329.4094687,0,0,5209,651.125
1764842329.413457,0,0,1733,216.625
1764842329.4174602,0,0,-1615,-201.875
1764842329.4214578,0,0,-2129,-266.125
1764842329.425455,1,1,323,40.375
1764842329.4294572,0,0,4910,613.750
1764842329.433454,0,0,1813,226.625
1764842329.437462,0,0,-1600,-200.000
1764842329.4414563,0,0,-2162,-270.250
1764842329.4454563,1,1,163,20.375
1764842329.4494612,0,0,4789,598.625
1764842329.453457,0,0,1964,245.500
1764842329.4574602,0,0,-1563,-195.375
1764842329.4614544,0,0,-2192,-274.000
1764842329.4654539,1,1,-24,-3.000
1764842329.4694571,0,0,4626,578.250
1764842329.473456,0,0,2117,264.625
1764842329.4774563,0,0,-1521,-190.125
1764842329.4814544,0,0,-2223,-277.875
1764842329.4855251,1,1,-259,-32.375
1764842329.4894664,0,0,4392,549.000
1764842329.4934437,0,0,2227,278.375
1764842329.4974554,0,0,-1488,-186.000
1764842329.5014548,0,0,-2223,-277.875
1764842329.5054533,1,1,-277,-34.625
1764842329.5094814,0,0,4382,547.750
1764842329.5134418,0,0,2461,307.625
1764842329.517464,0,0,-1418,-177.250
1764842329.5214546,0,0,-2196,-274.500
1764842329.5254505,1,1,-141,-17.625
1764842329.529459,0,0,4531,566.375
1764842329.5334568,0,0,2792,349.000
1764842329.5374548,0,0,-1323,-165.375
1764842329.5414402,0,0,-2240,-280.000
1764842329.5454373,1,1,-570,-71.250
1764842329.5494606,0,0,4038,504.750
1764842329.5534563,0,0,2784,348.000
1764842329.557462,0,0,-1318,-164.750
1764842329.5614548,0,0,-2275,-284.375
1764842329.5654542,1,1,-1059,-132.375
1764842329.569456,0,0,3398,424.750
1764842329.5734537,0,0,-1324,-165.500
1764842329.577455,0,0,-2246,-280.750
1764842329.581441,0,0,-666,-83.250
1764842329.5854375,1,1,3904,488.000
1764842329.5894535,0,0,3221,402.625
1764842329.5934525,0,0,-1151,-143.875
1764842329.597464,0,0,-2238,-279.750
1764842329.6014543,0,0,-853,-106.625
1764842329.6054513,1,1,3642,455.250
1764842329.609491,0,0,3334,416.750
1764842329.6134524,0,0,-1099,-137.375
1764842329.6174576,0,0,-2228,-278.500
1764842329.6214514,0,0,-803,-100.375
1764842329.6254525,1,1,3688,461.000
1764842329.6294534,0,0,3606,450.750
1764842329.6334505,0,0,-998,-124.750
1764842329.6374567,0,0,-2218,-277.250
1764842329.6414537,0,0,-852,-106.500
1764842329.6454551,1,1,3601,450.125
1764842329.6494548,0,0,3792,474.000
1764842329.653451,0,0,-922,-115.250
1764842329.6574621,0,0,-2211,-276.375
1764842329.661453,0,0,-879,-109.875
1764842329.6654522,1,1,3541,442.625
1764842329.6694543,0,0,4009,501.125
1764842329.6734498,0,0,-829,-103.625
1764842329.6774542,0,0,-2215,-276.875
1764842329.6814559,0,0,-1144,-143.000
1764842329.685555,1,1,3145,393.125
1764842329.689463,0,0,4036,504.500
1764842329.6934373,0,0,-783,-97.875
1764842329.6974497,0,0,-2211,-276.375
1764842329.7014527,0,0,-1208,-151.000
1764842329.7054524,1,1,3020,377.500
1764842329.7094796,0,0,4172,521.500
1764842329.7134383,0,0,-703,-87.875
1764842329.7174587,0,0,-2200,-275.000
1764842329.721453,0,0,-1218,-152.250
1764842329.725453,1,1,2978,372.250
1764842329.7294586,0,0,4377,547.125
1764842329.7334528,0,0,-593,-74.125
1764842329.737459,0,0,-2187,-273.375
1764842329.741456,0,0,-1319,-164.875
1764842329.745462,1,1,2792,349.000
1764842329.7494462,0,0,4487,560.875
1764842329.7534378,0,0,-505,-63.125
1764842329.7574522,0,0,-2173,-271.625
1764842329.7614496,0,0,-1298,-162.250
1764842329.7654512,1,1,2797,349.625
1764842329.769447,0,0,4705,588.125
1764842329.773438,0,0,-378,-47.250
1764842329.777454,0,0,-2157,-269.625
1764842329.7814507,0,0,-1457,-182.125
1764842329.7854486,1,1,2503,312.875
1764842329.7894404,0,0,4706,588.250
1764842329.7934365,0,0,-318,-39.750
1764842329.7974582,0,0,-2146,-268.250
1764842329.8014526,0,0,-1344,-168.000
1764842329.8054485,1,1,2682,335.250
1764842329.809487,0,0,4960,620.000
1764842329.8134546,0,0,-204,-25.500
1764842329.8174584,0,0,-2136,-267.000
1764842329.82145,0,0,-2105,-263.125
1764842329.8254466,1,1,952,119.000
1764842329.829449,0,0,3879,484.875
1764842329.833449,0,0,-467,-58.375
1764842329.8374534,0,0,-2173,-271.625
1764842329.841451,0,0,-1794,-224.250
1764842329.8454506,1,1,1769,221.125
1764842329.8494556,0,0,4764,595.500
1764842329.8534486,0,0,-40,-5.000
1764842329.8574548,0,0,-2082,-260.250
1764842329.86145,0,0,-1621,-202.625
1764842329.865449,1,1,2085,260.625
1764842329.869447,0,0,5173,646.625
1764842329.873447,0,0,195,24.375
1764842329.8774571,0,0,-2037,-254.625
1764842329.8814514,0,0,-1837,-229.625
1764842329.8908217,0,0,4965,620.625
1764842329.8934746,0,0,229,28.625
1764842329.8974583,0,0,-2024,-253.000
1764842329.9014363,0,0,-1322,-165.250
1764842329.9054344,1,1,2570,321.250
1764842329.909451,0,0,5833,729.125
1764842329.9134483,0,0,632,79.000
1764842329.917452,0,0,-1957,-244.625
1764842329.9214368,0,0,-1881,-235.125
1764842329.9254332,1,1,1424,178.000
1764842329.9294424,0,0,5112,639.000
1764842329.9334338,0,0,474,59.250
1764842329.9374485,0,0,-1998,-249.750
1764842329.9414527,0,0,-1886,-235.750
1764842329.9454515,1,1,1410,176.250
1764842329.949441,0,0,5237,654.625
1764842329.953431,0,0,650,81.250
1764842329.9574525,0,0,-1960,-245.000
1764842329.961469,0,0,-1982,-247.750
1764842329.9654617,1,1,1123,140.375
1764842329.9694479,0,0,5131,641.375
1764842329.9734328,0,0,754,94.250
1764842329.9774806,0,0,-1936,-242.000
1764842329.9818206,0,0,-2000,-250.000
1764842329.9855397,1,1,1047,130.875
1764842329.9894617,0,0,5172,646.500
1764842329.993451,0,0,908,113.500
1764842329.9974573,0,0,-1901,-237.625
1764842330.0014465,0,0,-2086,-260.750
1764842330.0054476,1,1,746,93.250
1764842330.009452,0,0,5008,626.000
1764842330.0134943,0,0,997,124.625
1764842330.0174496,0,0,-1878,-234.750
1764842330.0214481,0,0,-2121,-265.125
1764842330.0254462,1,1,596,74.500
1764842330.0294514,0,0,4960,620.000
1764842330.0334492,0,0,1143,142.875
1764842330.0374484,0,0,-1839,-229.875
1764842330.0414436,0,0,-2163,-270.375
1764842330.0454364,1,1,395,49.375
1764842330.049455,0,0,4847,605.875
1764842330.0534537,0,0,1277,159.625
1764842330.0574565,0,0,-1802,-225.250
1764842330.0614476,0,0,-2158,-269.750
1764842330.065446,1,1,390,48.750
1764842330.069449,0,0,4911,613.875
1764842330.0734484,0,0,1521,190.125
1764842330.0774543,0,0,-1739,-217.375
1764842330.0814514,0,0,-2178,-272.250
1764842330.0854478,1,1,254,31.750
1764842330.0895202,0,0,4827,603.375
1764842330.093465,0,0,1698,212.250
1764842330.0974512,0,0,-1692,-211.500
1764842330.1014457,0,0,-2215,-276.875
1764842330.1054413,1,1,42,5.250
1764842330.109447,0,0,4656,582.000
1764842330.1134877,0,0,1842,230.250
1764842330.1174498,0,0,-1650,-206.250
1764842330.1214347,0,0,-2156,-269.500
1764842330.1254303,1,1,310,38.750
1764842330.1294527,0,0,4951,618.875
1764842330.1334445,0,0,2205,275.625
1764842330.1374507,0,0,-1555,-194.375
1764842330.1414478,0,0,-2128,-266.000
1764842330.145443,1,1,389,48.625
1764842330.149444,0,0,5047,630.875
1764842330.1534443,0,0,2490,311.250
1764842330.157458,0,0,-1483,-185.375
1764842330.1614494,0,0,-2178,-272.250
1764842330.1654456,1,1,145,18.125
1764842330.1694603,0,0,4814,601.750
1764842330.173443,0,0,2615,326.875
1764842330.177452,0,0,-1454,-181.750
1764842330.1814485,0,0,-2205,-275.625
1764842330.1854439,1,1,3,0.375
1764842330.1894412,0,0,2783,347.875
1764842330.1934476,0,0,-1407,-175.875
1764842330.1974523,0,0,-2231,-278.875
1764842330.2014346,0,0,-171,-21.375
1764842330.2054317,1,1,4487,560.875
1764842330.2094502,0,0,2935,366.875
1764842330.2134578,0,0,-1360,-170.000
1764842330.217441,0,0,-2224,-278.000
1764842330.2214332,0,0,-144,-18.000
1764842330.2254293,1,1,4509,563.625
1764842330.2294521,0,0,3197,399.625
1764842330.2334464,0,0,-1282,-160.250
1764842330.237454,0,0,-2244,-280.500
1764842330.2414455,0,0,-326,-40.750
1764842330.2454484,1,1,4297,537.125
1764842330.2494516,0,0,3336,417.000
1764842330.2534442,0,0,-1233,-154.125
1764842330.2574496,0,0,-2268,-283.500
1764842330.2614443,0,0,-569,-71.125
1764842330.2654457,1,1,4002,500.250
1764842330.2694354,0,0,3433,429.125
1764842330.273429,0,0,-1188,-148.500
1764842330.2774541,0,0,-2271,-283.875
1764842330.2814493,0,0,-638,-79.750
1764842330.2854488,1,1,3903,487.875
1764842330.2895076,0,0,3637,454.625
1764842330.2934465,0,0,-1107,-138.375
1764842330.2974327,0,0,-2256,-282.000
1764842330.3014274,0,0,-568,-71.000
1764842330.3054266,1,1,3962,495.250
1764842330.3094492,0,0,3922,490.250
1764842330.3134599,0,0,-1000,-125.000
1764842330.3174498,0,0,-2262,-282.750
1764842330.32143,0,0,-763,-95.375
1764842330.3254292,1,1,3702,462.750
1764842330.3294518,0,0,4011,501.375
1764842330.3334444,0,0,-948,-118.500
1764842330.3374484,0,0,-2271,-283.875
1764842330.341444,0,0,-936,-117.000
1764842330.3454406,1,1,3454,431.750
1764842330.349432,0,0,4122,515.250
1764842330.3534284,0,0,-876,-109.500
1764842330.3574512,0,0,-2269,-283.625
1764842330.3614428,0,0,-1081,-135.125
1764842330.3654404,1,1,3231,403.875
1764842330.369447,0,0,4225,528.125
1764842330.373447,0,0,-802,-100.250
1764842330.3774493,0,0,-2255,-281.875
1764842330.3814483,0,0,-981,-122.625
1764842330.3854501,1,1,3340,417.500
1764842330.389431,0,0,4549,568.625
1764842330.3934293,0,0,-648,-81.000
1764842330.3974454,0,0,-2246,-280.750
1764842330.4014444,0,0,-1227,-153.375
1764842330.4054391,1,1,2964,370.500
1764842330.409434,0,0,4518,564.750
1764842330.4134274,0,0,-611,-76.375
1764842330.4174488,0,0,-2243,-280.375
1764842330.4214506,0,0,-1252,-156.500
1764842330.4254441,1,1,2898,362.250
1764842330.4294434,0,0,4681,585.125
1764842330.433442,0,0,-503,-62.875
1764842330.4374497,0,0,-2229,-278.625
1764842330.441443,0,0,-1311,-163.875
1764842330.4454443,1,1,2780,347.500
1764842330.4494457,0,0,4822,602.750
1764842330.453439,0,0,-389,-48.625
1764842330.4574502,0,0,-2210,-276.250
1764842330.4614444,0,0,-1238,-154.750
1764842330.465443,1,1,2864,358.000
1764842330.4694397,0,0,5083,635.375
1764842330.4734402,0,0,-232,-29.000
1764842330.4774508,0,0,-2191,-273.875
1764842330.4814458,0,0,-1297,-162.125
1764842330.4854436,1,1,2748,343.500
1764842330.4895163,0,0,5190,648.750
1764842330.4934573,0,0,-126,-15.750
1764842330.4974422,0,0,-2177,-272.125
1764842330.501427,0,0,-1283,-160.375
1764842330.5054262,1,1,2746,343.250
1764842330.5094464,0,0,5370,671.250
1764842330.5134404,0,0,15,1.875
1764842330.5174592,0,0,-2163,-270.375
1764842330.5214267,0,0,-1535,-191.875
1764842330.525429,1,1,2306,288.250
1764842330.529449,0,0,5243,655.375
1764842330.533442,0,0,61,7.625
1764842330.537437,0,0,-2158,-269.750
1764842330.541429,0,0,-1607,-200.875
1764842330.5454283,1,1,2153,269.125
1764842330.5494423,0,0,5300,662.500
1764842330.5534422,0,0,183,22.875
1764842330.5574474,0,0,-2141,-267.625
1764842330.5614398,0,0,-1764,-220.500
1764842330.5654395,1,1,1814,226.750
1764842330.5694442,0,0,5216,652.000
1764842330.5734437,0,0,271,33.875
1764842330.5774431,0,0,-2124,-265.500
1764842330.5814588,0,0,-1802,-225.250
1764842330.5854652,1,1,1707,213.375
1764842330.5894315,0,0,5293,661.625
1764842330.5934258,0,0,435,54.375
1764842330.5974433,0,0,-2091,-261.375
1764842330.6014328,0,0,-1737,-217.125
1764842330.605432,1,1,1823,227.875
1764842330.6094377,0,0,5502,687.750
1764842330.6134365,0,0,630,78.750
1764842330.6174679,0,0,-2054,-256.750
1764842330.6214845,0,0,-1867,-233.375
1764842330.6254818,1,1,1509,188.625
1764842330.629486,0,0,5383,672.875
1764842330.633486,0,0,720,90.000
1764842330.6374924,0,0,-2038,-254.750
1764842330.6414845,0,0,-2043,-255.375
1764842330.645483,1,1,1016,127.000
1764842330.6494873,0,0,5098,637.250
1764842330.653483,0,0,770,96.250
1764842330.6574874,0,0,-2022,-252.750
1764842330.6614828,0,0,-1983,-247.875
1764842330.6654806,1,1,1182,147.750
1764842330.6694794,0,0,5313,664.125
1764842330.6734838,0,0,935,116.875
1764842330.6774945,0,0,-1986,-248.250
1764842330.6814868,0,0,-2304,-288.000
1764842330.6854823,1,1,-241,-30.125
1764842330.6895576,0,0,4100,512.500
1764842330.6935005,0,0,668,83.500
1764842330.697483,0,0,-2024,-253.000
1764842330.7014668,0,0,-2007,-250.875
1764842330.7054656,1,1,1076,134.500
1764842330.7094836,0,0,5427,678.375
1764842330.7134805,0,0,1458,182.250
1764842330.7175832,0,0,-1839,-229.875
1764842330.7214305,0,0,-2026,-253.250
1764842330.7254262,1,1,962,120.250
