Timestamp,LO_plus,LO_minus,Raw_ADC,Voltage_mV
1764973321.994678,0,0,8,1.000
1764973321.9965158,0,0,11,1.375
1764973322.000222,0,0,13,1.625
1764973322.0042114,0,0,15,1.875
1764973322.0082095,0,0,14,1.750
1764973322.012224,0,0,15,1.875
1764973322.0162728,0,0,18,2.250
1764973322.020231,0,0,20,2.500
1764973322.0242093,0,0,20,2.500
1764973322.0282087,0,0,18,2.250
1764973322.032222,0,0,20,2.500
1764973322.036219,0,0,23,2.875
1764973322.0402193,0,0,24,3.000
1764973322.0442069,0,0,24,3.000
1764973322.0482657,0,0,22,2.750
1764973322.052222,0,0,23,2.875
1764973322.0562046,0,0,25,3.125
1764973322.0602186,0,0,26,3.250
1764973322.0642178,0,0,26,3.250
1764973322.068217,0,0,23,2.875
1764973322.0722117,0,0,24,3.000
1764973322.0762072,0,0,26,3.250
1764973322.0802739,0,0,28,3.500
1764973322.084225,0,0,27,3.375
1764973322.088216,0,0,24,3.000
1764973322.0922194,0,0,25,3.125
1764973322.0962186,0,0,26,3.250
1764973322.1002142,0,0,28,3.500
1764973322.104206,0,0,28,3.500
1764973322.1082046,0,0,25,3.125
1764973322.1122763,0,0,25,3.125
1764973322.1162276,0,0,27,3.375
1764973322.1202168,0,0,28,3.500
1764973322.1242058,0,0,28,3.500
1764973322.1282048,0,0,25,3.125
1764973322.1322188,0,0,26,3.250
1764973322.1362164,0,0,27,3.375
1764973322.1402628,0,0,28,3.500
1764973322.1442165,0,0,28,3.500
1764973322.148204,0,0,25,3.125
1764973322.1522195,0,0,25,3.125
1764973322.1562166,0,0,27,3.375
1764973322.1602159,0,0,28,3.500
1764973322.1642034,0,0,29,3.625
1764973322.1682045,0,0,25,3.125
1764973322.172238,0,0,26,3.250
1764973322.176265,0,0,27,3.375
1764973322.1802247,0,0,29,3.625
1764973322.1842146,0,0,28,3.500
1764973322.1882124,0,0,25,3.125
1764973322.1922734,0,0,26,3.250
1764973322.196278,0,0,27,3.375
1764973322.200231,0,0,29,3.625
1764973322.2042162,0,0,28,3.500
1764973322.2082145,0,0,26,3.250
1764973322.2122164,0,0,26,3.250
1764973322.2162194,0,0,28,3.500
1764973322.220218,0,0,28,3.500
1764973322.2242064,0,0,28,3.500
1764973322.228205,0,0,26,3.250
1764973322.2322314,0,0,26,3.250
1764973322.2362564,0,0,27,3.375
1764973322.2402284,0,0,29,3.625
1764973322.244205,0,0,28,3.500
1764973322.248204,0,0,26,3.250
1764973322.252214,0,0,26,3.250
1764973322.2562044,0,0,27,3.375
1764973322.2602084,0,0,29,3.625
1764973322.2642686,0,0,29,3.625
1764973322.2682216,0,0,26,3.250
1764973322.272207,0,0,26,3.250
1764973322.2762024,0,0,27,3.375
1764973322.2802167,0,0,28,3.500
1764973322.284216,0,0,29,3.625
1764973322.2882202,0,0,26,3.250
1764973322.2922146,0,0,26,3.250
1764973322.2962723,0,0,27,3.375
1764973322.300222,0,0,29,3.625
1764973322.3042026,0,0,29,3.625
1764973322.3082027,0,0,25,3.125
1764973322.3122191,0,0,26,3.250
1764973322.3162136,0,0,27,3.375
1764973322.320211,0,0,28,3.500
1764973322.3242493,0,0,29,3.625
1764973322.3282332,0,0,26,3.250
1764973322.332212,0,0,26,3.250
1764973322.336202,0,0,28,3.500
1764973322.3402097,0,0,28,3.500
1764973322.3442144,0,0,29,3.625
1764973322.3482144,0,0,26,3.250
1764973322.3522093,0,0,26,3.250
1764973322.3562033,0,0,27,3.375
1764973322.360258,0,0,28,3.500
1764973322.36421,0,0,29,3.625
1764973322.3682027,0,0,26,3.250
1764973322.3722165,0,0,26,3.250
1764973322.3762143,0,0,27,3.375
1764973322.3802109,0,0,29,3.625
1764973322.3842146,0,0,29,3.625
1764973322.3882494,0,0,26,3.250
1764973322.3922744,0,0,26,3.250
1764973322.396211,0,0,26,3.250
1764973322.40023,0,0,29,3.625
1764973322.4042127,0,0,29,3.625
1764973322.408211,0,0,26,3.250
1764973322.4122121,0,0,26,3.250
1764973322.416213,0,0,27,3.375
1764973322.4202607,0,0,28,3.500
1764973322.4242089,0,0,29,3.625
1764973322.428201,0,0,26,3.250
1764973322.4322166,0,0,26,3.250
1764973322.4362128,0,0,27,3.375
1764973322.440215,0,0,29,3.625
1764973322.4442086,0,0,29,3.625
1764973322.448259,0,0,27,3.375
1764973322.4522142,0,0,26,3.250
1764973322.4563117,0,0,27,3.375
1764973322.460296,0,0,28,3.500
1764973322.4642942,0,0,29,3.625
1764973322.4683104,0,0,27,3.375
1764973322.4722822,0,0,26,3.250
1764973322.476275,0,0,27,3.375
1764973322.4803462,0,0,28,3.500
1764973322.484297,0,0,29,3.625
1764973322.4882846,0,0,27,3.375
1764973322.4922907,0,0,26,3.250
1764973322.496286,0,0,27,3.375
1764973322.500291,0,0,28,3.500
1764973322.5042748,0,0,29,3.625
1764973322.5083177,0,0,27,3.375
1764973322.512317,0,0,26,3.250
1764973322.516288,0,0,27,3.375
1764973322.5202904,0,0,28,3.500
1764973322.5242906,0,0,29,3.625
1764973322.5282905,0,0,26,3.250
1764973322.5322793,0,0,26,3.250
1764973322.5362706,0,0,26,3.250
1764973322.5403383,0,0,29,3.625
1764973322.5442848,0,0,29,3.625
1764973322.548276,0,0,27,3.375
1764973322.5522914,0,0,26,3.250
1764973322.5563622,0,0,26,3.250
1764973322.560366,0,0,29,3.625
1764973322.564345,0,0,29,3.625
1764973322.568376,0,0,27,3.375
1764973322.5724075,0,0,26,3.250
1764973322.5763655,0,0,26,3.250
1764973322.5803638,0,0,29,3.625
1764973322.584367,0,0,27,3.375
1764973322.5883663,0,0,26,3.250
1764973322.592436,0,0,26,3.250
1764973322.5964167,0,0,28,3.500
1764973322.6003935,0,0,29,3.625
1764973322.604375,0,0,27,3.375
1764973322.6083467,0,0,26,3.250
1764973322.6123698,0,0,26,3.250
1764973322.6163692,0,0,28,3.500
1764973322.6203628,0,0,28,3.500
1764973322.6243653,0,0,27,3.375
1764973322.6284213,0,0,26,3.250
1764973322.6323686,0,0,26,3.250
1764973322.636346,0,0,28,3.500
1764973322.6403685,0,0,29,3.625
1764973322.644734,0,0,27,3.375
1764973322.6485615,0,0,25,3.125
1764973322.6523926,0,0,26,3.250
1764973322.656452,0,0,28,3.500
1764973322.6603215,0,0,29,3.625
1764973322.6643214,0,0,27,3.375
1764973322.668315,0,0,26,3.250
1764973322.6723232,0,0,26,3.250
1764973322.676316,0,0,28,3.500
1764973322.680386,0,0,29,3.625
1764973322.6843252,0,0,28,3.500
1764973322.688311,0,0,26,3.250
1764973322.6923213,0,0,26,3.250
1764973322.6963212,0,0,28,3.500
1764973322.7003233,0,0,29,3.625
1764973322.704312,0,0,28,3.500
1764973322.7083156,0,0,25,3.125
1764973322.7123272,0,0,26,3.250
1764973322.7163162,0,0,28,3.500
1764973322.72032,0,0,28,3.500
1764973322.724319,0,0,28,3.500
1764973322.7283416,0,0,25,3.125
1764973322.732326,0,0,26,3.250
1764973322.7363183,0,0,28,3.500
1764973322.7403219,0,0,29,3.625
1764973322.7443242,0,0,28,3.500
1764973322.7483187,0,0,25,3.125
1764973322.7523098,0,0,26,3.250
1764973322.7563038,0,0,28,3.500
1764973322.7603269,0,0,29,3.625
1764973322.7643242,0,0,28,3.500
1764973322.7683163,0,0,25,3.125
1764973322.772308,0,0,26,3.250
1764973322.7762997,0,0,27,3.375
1764973322.7803178,0,0,29,3.625
1764973322.7843244,0,0,28,3.500
1764973322.7883267,0,0,26,3.250
1764973322.7923992,0,0,26,3.250
1764973322.7963285,0,0,28,3.500
1764973322.8003254,0,0,29,3.625
1764973322.804307,0,0,28,3.500
1764973322.8083029,0,0,25,3.125
1764973322.8123252,0,0,26,3.250
1764973322.8163197,0,0,28,3.500
1764973322.820319,0,0,29,3.625
1764973322.8243008,0,0,28,3.500
1764973322.8283007,0,0,25,3.125
1764973322.8323112,0,0,26,3.250
1764973322.8362994,0,0,28,3.500
1764973322.8403082,0,0,29,3.625
1764973322.844315,0,0,28,3.500
1764973322.8483164,0,0,26,3.250
1764973322.8523898,0,0,26,3.250
1764973322.8563292,0,0,28,3.500
1764973322.860324,0,0,28,3.500
1764973322.8643005,0,0,28,3.500
1764973322.8683004,0,0,26,3.250
1764973322.8723254,0,0,26,3.250
1764973322.8763158,0,0,28,3.500
1764973322.8803165,0,0,29,3.625
1764973322.8842974,0,0,28,3.500
1764973322.8883002,0,0,25,3.125
1764973322.892322,0,0,26,3.250
1764973322.896319,0,0,27,3.375
1764973322.9003208,0,0,29,3.625
1764973322.904317,0,0,28,3.500
1764973322.9083183,0,0,25,3.125
1764973322.9123242,0,0,26,3.250
1764973322.9163175,0,0,28,3.500
1764973322.9203224,0,0,28,3.500
1764973322.9243188,0,0,29,3.625
1764973322.928315,0,0,26,3.250
1764973322.93232,0,0,26,3.250
1764973322.9363165,0,0,28,3.500
1764973322.9403162,0,0,29,3.625
1764973322.9443145,0,0,28,3.500
1764973322.9483132,0,0,26,3.250
1764973322.9523077,0,0,26,3.250
1764973322.956303,0,0,28,3.500
1764973322.9603498,0,0,28,3.500
1764973322.9643185,0,0,29,3.625
1764973322.9683146,0,0,26,3.250
1764973322.972321,0,0,26,3.250
1764973322.9763176,0,0,28,3.500
1764973322.9803238,0,0,28,3.500
1764973322.984316,0,0,29,3.625
1764973322.9883125,0,0,26,3.250
1764973322.9975348,0,0,28,3.500
1764973323.0003343,0,0,29,3.625
1764973323.0043054,0,0,29,3.625
1764973323.0082984,0,0,26,3.250
1764973323.0123036,0,0,26,3.250
1764973323.0162992,0,0,27,3.375
1764973323.0203063,0,0,28,3.500
1764973323.0243042,0,0,29,3.625
1764973323.0282965,0,0,26,3.250
1764973323.032306,0,0,26,3.250
1764973323.036296,0,0,27,3.375
1764973323.0403109,0,0,28,3.500
1764973323.0443175,0,0,29,3.625
1764973323.0483143,0,0,26,3.250
1764973323.0523186,0,0,26,3.250
1764973323.0563135,0,0,27,3.375
1764973323.0603313,0,0,28,3.500
1764973323.0643296,0,0,29,3.625
1764973323.0683167,0,0,25,3.125
1764973323.0723066,0,0,26,3.250
1764973323.0762951,0,0,27,3.375
1764973323.0803084,0,0,29,3.625
1764973323.0843165,0,0,29,3.625
1764973323.0883164,0,0,26,3.250
1764973323.0923045,0,0,26,3.250
1764973323.096294,0,0,27,3.375
1764973323.1003087,0,0,28,3.500
1764973323.1043193,0,0,29,3.625
1764973323.1083171,0,0,26,3.250
1764973323.1123207,0,0,26,3.250
1764973323.1163137,0,0,27,3.375
1764973323.1203196,0,0,28,3.500
1764973323.1243148,0,0,29,3.625
1764973323.1283169,0,0,26,3.250
1764973323.1323192,0,0,26,3.250
1764973323.1363132,0,0,27,3.375
1764973323.1403189,0,0,28,3.500
1764973323.1443121,0,0,29,3.625
1764973323.148316,0,0,27,3.375
1764973323.1523163,0,0,26,3.250
1764973323.1563122,0,0,27,3.375
1764973323.160335,0,0,28,3.500
1764973323.1643136,0,0,29,3.625
1764973323.1683142,0,0,26,3.250
1764973323.17232,0,0,26,3.250
1764973323.1763155,0,0,27,3.375
1764973323.1803143,0,0,28,3.500
1764973323.1843119,0,0,29,3.625
1764973323.1883132,0,0,26,3.250
1764973323.1923168,0,0,26,3.250
1764973323.1963918,0,0,29,3.625
1764973323.2003303,0,0,29,3.625
1764973323.2042952,0,0,27,3.375
1764973323.2082965,0,0,26,3.250
1764973323.21232,0,0,26,3.250
1764973323.2163174,0,0,29,3.625
1764973323.2203152,0,0,29,3.625
1764973323.2242954,0,0,26,3.250
1764973323.228295,0,0,26,3.250
1764973323.2323232,0,0,27,3.375
1764973323.2363143,0,0,28,3.500
1764973323.2403195,0,0,29,3.625
1764973323.2443123,0,0,26,3.250
1764973323.2483108,0,0,26,3.250
1764973323.2523198,0,0,26,3.250
1764973323.2563214,0,0,28,3.500
1764973323.2603514,0,0,28,3.500
1764973323.264297,0,0,27,3.375
1764973323.2682936,0,0,26,3.250
1764973323.2723122,0,0,27,3.375
1764973323.2762961,0,0,28,3.500
1764973323.2802997,0,0,28,3.500
1764973323.2842968,0,0,27,3.375
1764973323.288314,0,0,26,3.250
1764973323.2923186,0,0,27,3.375
1764973323.2963157,0,0,28,3.500
1764973323.3003223,0,0,29,3.625
1764973323.3043153,0,0,27,3.375
1764973323.3083134,0,0,26,3.250
1764973323.3123167,0,0,26,3.250
1764973323.316313,0,0,28,3.500
1764973323.320321,0,0,29,3.625
1764973323.324315,0,0,27,3.375
1764973323.3283148,0,0,25,3.125
1764973323.3323166,0,0,26,3.250
1764973323.336311,0,0,28,3.500
1764973323.3403084,0,0,28,3.500
1764973323.3442957,0,0,27,3.375
1764973323.3482962,0,0,26,3.250
1764973323.3523164,0,0,26,3.250
1764973323.3563128,0,0,28,3.500
1764973323.3603203,0,0,29,3.625
1764973323.3643305,0,0,27,3.375
1764973323.3683136,0,0,25,3.125
1764973323.3723142,0,0,26,3.250
1764973323.37631,0,0,28,3.500
1764973323.3803186,0,0,29,3.625
1764973323.3843124,0,0,28,3.500
1764973323.3883114,0,0,26,3.250
1764973323.392315,0,0,26,3.250
1764973323.3963828,0,0,29,3.625
1764973323.4003327,0,0,29,3.625
1764973323.4042976,0,0,28,3.500
1764973323.4082966,0,0,26,3.250
1764973323.412321,0,0,26,3.250
1764973323.4163136,0,0,28,3.500
1764973323.4203124,0,0,29,3.625
1764973323.424294,0,0,27,3.375
1764973323.4282966,0,0,25,3.125
1764973323.432323,0,0,27,3.375
1764973323.43631,0,0,28,3.500
1764973323.4403172,0,0,29,3.625
1764973323.4443102,0,0,28,3.500
1764973323.4483113,0,0,26,3.250
1764973323.4523199,0,0,26,3.250
1764973323.4563143,0,0,28,3.500
1764973323.4603107,0,0,29,3.625
1764973323.4643438,0,0,28,3.500
1764973323.468309,0,0,25,3.125
1764973323.4723134,0,0,26,3.250
1764973323.476311,0,0,28,3.500
1764973323.480313,0,0,29,3.625
1764973323.4842906,0,0,28,3.500
1764973323.4882889,0,0,26,3.250
1764973323.4923155,0,0,26,3.250
1764973323.496313,0,0,28,3.500
1764973323.500318,0,0,29,3.625
1764973323.5043094,0,0,28,3.500
1764973323.508308,0,0,26,3.250
1764973323.512313,0,0,26,3.250
1764973323.516311,0,0,28,3.500
1764973323.520318,0,0,29,3.625
1764973323.5243075,0,0,28,3.500
1764973323.5283072,0,0,25,3.125
1764973323.5323136,0,0,26,3.250
1764973323.5363123,0,0,28,3.500
1764973323.540316,0,0,28,3.500
1764973323.5443087,0,0,27,3.375
1764973323.5483067,0,0,25,3.125
1764973323.5523112,0,0,26,3.250
1764973323.5563111,0,0,28,3.500
1764973323.5603173,0,0,29,3.625
1764973323.5643234,0,0,28,3.500
1764973323.5683107,0,0,25,3.125
1764973323.572311,0,0,26,3.250
1764973323.5763102,0,0,28,3.500
1764973323.5803158,0,0,29,3.625
1764973323.584312,0,0,28,3.500
1764973323.5883071,0,0,26,3.250
1764973323.5923095,0,0,26,3.250
1764973323.5963798,0,0,28,3.500
1764973323.6003275,0,0,29,3.625
1764973323.6042957,0,0,28,3.500
1764973323.608295,0,0,25,3.125
1764973323.6123137,0,0,26,3.250
1764973323.6163094,0,0,28,3.500
1764973323.620313,0,0,29,3.625
1764973323.6242936,0,0,28,3.500
1764973323.6282926,0,0,26,3.250
1764973323.6323168,0,0,26,3.250
1764973323.6363075,0,0,28,3.500
1764973323.6403174,0,0,29,3.625
1764973323.6446936,0,0,28,3.500
1764973323.6484408,0,0,26,3.250
1764973323.6523383,0,0,26,3.250
1764973323.656317,0,0,28,3.500
1764973323.6603088,0,0,28,3.500
1764973323.6643095,0,0,29,3.625
1764973323.6683445,0,0,26,3.250
1764973323.672308,0,0,26,3.250
1764973323.6763034,0,0,28,3.500
1764973323.6803062,0,0,28,3.500
1764973323.6843061,0,0,28,3.500
1764973323.6883075,0,0,25,3.125
1764973323.6923137,0,0,26,3.250
1764973323.696305,0,0,28,3.500
1764973323.700306,0,0,29,3.625
1764973323.704314,0,0,28,3.500
1764973323.7083106,0,0,25,3.125
1764973323.712311,0,0,26,3.250
1764973323.7163045,0,0,27,3.375
1764973323.720305,0,0,28,3.500
1764973323.7243018,0,0,29,3.625
1764973323.728301,0,0,25,3.125
1764973323.7323081,0,0,26,3.250
1764973323.736306,0,0,28,3.500
1764973323.7403057,0,0,28,3.500
1764973323.7443092,0,0,29,3.625
1764973323.7483082,0,0,26,3.250
1764973323.752314,0,0,26,3.250
1764973323.7563093,0,0,27,3.375
1764973323.7603123,0,0,28,3.500
1764973323.7643056,0,0,29,3.625
1764973323.7683444,0,0,25,3.125
1764973323.7723134,0,0,26,3.250
1764973323.7763069,0,0,27,3.375
1764973323.780315,0,0,29,3.625
1764973323.7843094,0,0,29,3.625
1764973323.7883146,0,0,26,3.250
1764973323.792312,0,0,26,3.250
1764973323.7963812,0,0,27,3.375
1764973323.8003268,0,0,29,3.625
1764973323.8042886,0,0,29,3.625
1764973323.8082886,0,0,26,3.250
1764973323.8123126,0,0,26,3.250
1764973323.8163116,0,0,27,3.375
1764973323.8203118,0,0,29,3.625
1764973323.8242898,0,0,26,3.250
1764973323.8282888,0,0,26,3.250
1764973323.8323135,0,0,27,3.375
1764973323.836303,0,0,28,3.500
1764973323.8403108,0,0,29,3.625
1764973323.8443027,0,0,25,3.125
1764973323.8483002,0,0,26,3.250
1764973323.8523757,0,0,27,3.375
1764973323.8563185,0,0,28,3.500
1764973323.8603134,0,0,29,3.625
1764973323.8643048,0,0,26,3.250
1764973323.8683398,0,0,26,3.250
1764973323.872309,0,0,27,3.375
1764973323.8763037,0,0,28,3.500
1764973323.880309,0,0,29,3.625
1764973323.884289,0,0,26,3.250
1764973323.8882875,0,0,26,3.250
1764973323.8923085,0,0,27,3.375
1764973323.896307,0,0,29,3.625
1764973323.9003115,0,0,29,3.625
1764973323.904305,0,0,26,3.250
1764973323.908304,0,0,26,3.250
1764973323.9123058,0,0,26,3.250
1764973323.9163017,0,0,28,3.500
1764973323.9203093,0,0,29,3.625
1764973323.9243038,0,0,26,3.250
1764973323.9283066,0,0,26,3.250
1764973323.932307,0,0,27,3.375
1764973323.9363017,0,0,29,3.625
1764973323.9403088,0,0,29,3.625
1764973323.9443047,0,0,26,3.250
1764973323.9483056,0,0,26,3.250
1764973323.952295,0,0,26,3.250
1764973323.956285,0,0,28,3.500
1764973323.9602969,0,0,29,3.625
1764973323.964305,0,0,26,3.250
1764973323.968305,0,0,26,3.250
1764973323.9723248,0,0,27,3.375
1764973323.976303,0,0,29,3.625
1764973323.9803102,0,0,29,3.625
1764973323.9843018,0,0,26,3.250
1764973323.988305,0,0,26,3.250
1764973323.9923072,0,0,26,3.250
1764973324.0012362,0,0,30,3.750
1764973324.00433,0,0,27,3.375
1764973324.0083098,0,0,26,3.250
1764973324.0123034,0,0,27,3.375
1764973324.0162897,0,0,28,3.500
1764973324.0202982,0,0,29,3.625
1764973324.024304,0,0,26,3.250
1764973324.0283017,0,0,25,3.125
1764973324.0322933,0,0,26,3.250
1764973324.0362859,0,0,28,3.500
1764973324.0402982,0,0,29,3.625
1764973324.0443037,0,0,27,3.375
1764973324.0483015,0,0,26,3.250
1764973324.0522916,0,0,26,3.250
1764973324.0562987,0,0,28,3.500
1764973324.0603244,0,0,30,3.750
1764973324.0643082,0,0,26,3.250
1764973324.0682986,0,0,25,3.125
1764973324.0723305,0,0,26,3.250
1764973324.076287,0,0,28,3.500
1764973324.0802975,0,0,29,3.625
1764973324.0843043,0,0,27,3.375
1764973324.0882993,0,0,25,3.125
1764973324.0922887,0,0,27,3.375
1764973324.0962853,0,0,28,3.500
1764973324.1002982,0,0,29,3.625
1764973324.1043081,0,0,27,3.375
1764973324.1083004,0,0,25,3.125
1764973324.1123004,0,0,27,3.375
1764973324.1163003,0,0,28,3.500
1764973324.1203134,0,0,29,3.625
1764973324.1243029,0,0,27,3.375
1764973324.1282988,0,0,26,3.250
1764973324.132305,0,0,26,3.250
1764973324.1363018,0,0,28,3.500
1764973324.140308,0,0,29,3.625
1764973324.1443024,0,0,27,3.375
1764973324.1482975,0,0,26,3.250
1764973324.1522994,0,0,26,3.250
1764973324.1562982,0,0,28,3.500
1764973324.1603084,0,0,29,3.625
1764973324.164302,0,0,28,3.500
1764973324.168302,0,0,26,3.250
1764973324.172318,0,0,26,3.250
1764973324.1762993,0,0,28,3.500
1764973324.1803033,0,0,29,3.625
1764973324.1843019,0,0,28,3.500
1764973324.1883006,0,0,26,3.250
1764973324.1922977,0,0,26,3.250
1764973324.1962967,0,0,28,3.500
1764973324.20038,0,0,29,3.625
1764973324.2043118,0,0,27,3.375
1764973324.2082982,0,0,26,3.250
1764973324.212301,0,0,26,3.250
1764973324.216297,0,0,28,3.500
1764973324.220297,0,0,29,3.625
1764973324.2242997,0,0,27,3.375
1764973324.228303,0,0,25,3.125
1764973324.2322912,0,0,26,3.250
1764973324.2362812,0,0,28,3.500
1764973324.240294,0,0,29,3.625
1764973324.244305,0,0,27,3.375
1764973324.2483015,0,0,26,3.250
1764973324.252301,0,0,26,3.250
1764973324.2562957,0,0,28,3.500
1764973324.2603068,0,0,28,3.500
1764973324.2643073,0,0,28,3.500
1764973324.2683012,0,0,25,3.125
1764973324.272327,0,0,26,3.250
1764973324.2762842,0,0,28,3.500
1764973324.280292,0,0,29,3.625
1764973324.2842987,0,0,28,3.500
1764973324.2883039,0,0,26,3.250
1764973324.2922952,0,0,26,3.250
1764973324.2962813,0,0,28,3.500
1764973324.3002944,0,0,29,3.625
1764973324.3043098,0,0,28,3.500
1764973324.3083003,0,0,26,3.250
1764973324.3123038,0,0,26,3.250
1764973324.3163006,0,0,28,3.500
1764973324.3203058,0,0,29,3.625
1764973324.3242958,0,0,28,3.500
1764973324.328297,0,0,26,3.250
1764973324.3323023,0,0,26,3.250
1764973324.3362982,0,0,27,3.375
1764973324.3403058,0,0,29,3.625
1764973324.344296,0,0,28,3.500
1764973324.3482945,0,0,25,3.125
1764973324.3522987,0,0,26,3.250
1764973324.3562984,0,0,27,3.375
1764973324.3603046,0,0,28,3.500
1764973324.3642774,0,0,29,3.625
1764973324.368279,0,0,26,3.250
1764973324.3722982,0,0,26,3.250
1764973324.3763154,0,0,28,3.500
1764973324.3803048,0,0,28,3.500
1764973324.3842998,0,0,28,3.500
1764973324.388296,0,0,25,3.125
1764973324.3922973,0,0,26,3.250
1764973324.3962977,0,0,28,3.500
1764973324.4003944,0,0,29,3.625
1764973324.4043171,0,0,28,3.500
1764973324.408297,0,0,25,3.125
1764973324.4122877,0,0,26,3.250
1764973324.41628,0,0,28,3.500
1764973324.420293,0,0,29,3.625
1764973324.4242983,0,0,29,3.625
1764973324.4282947,0,0,26,3.250
1764973324.4322855,0,0,26,3.250
1764973324.4362788,0,0,28,3.500
1764973324.4402955,0,0,29,3.625
1764973324.4443011,0,0,26,3.250
1764973324.4482985,0,0,26,3.250
1764973324.4522867,0,0,28,3.500
1764973324.456276,0,0,29,3.625
1764973324.4603066,0,0,29,3.625
1764973324.4643054,0,0,26,3.250
1764973324.4682956,0,0,26,3.250
1764973324.4722824,0,0,28,3.500
1764973324.4763134,0,0,28,3.500
1764973324.4802883,0,0,29,3.625
1764973324.4842982,0,0,26,3.250
1764973324.4882965,0,0,26,3.250
1764973324.4922876,0,0,28,3.500
1764973324.4962757,0,0,29,3.625
1764973324.5002902,0,0,29,3.625
1764973324.5043013,0,0,26,3.250
1764973324.5082958,0,0,26,3.250
1764973324.5122972,0,0,27,3.375
1764973324.5162926,0,0,28,3.500
1764973324.5203023,0,0,29,3.625
1764973324.5242968,0,0,26,3.250
1764973324.5282958,0,0,26,3.250
1764973324.5323002,0,0,27,3.375
1764973324.5362928,0,0,28,3.500
1764973324.5403,0,0,29,3.625
1764973324.5442939,0,0,25,3.125
1764973324.5482962,0,0,26,3.250
1764973324.552296,0,0,28,3.500
1764973324.5562956,0,0,28,3.500
1764973324.5603008,0,0,29,3.625
1764973324.564292,0,0,26,3.250
1764973324.5682948,0,0,26,3.250
1764973324.5722985,0,0,27,3.375
1764973324.576306,0,0,29,3.625
1764973324.5802999,0,0,29,3.625
1764973324.5842917,0,0,26,3.250
1764973324.5882924,0,0,25,3.125
1764973324.5922964,0,0,27,3.375
1764973324.596295,0,0,29,3.625
1764973324.6003816,0,0,29,3.625
1764973324.6043112,0,0,26,3.250
1764973324.6082957,0,0,26,3.250
1764973324.6122913,0,0,27,3.375
1764973324.61628,0,0,28,3.500
1764973324.6202922,0,0,29,3.625
1764973324.624296,0,0,26,3.250
1764973324.6282916,0,0,25,3.125
1764973324.6322846,0,0,28,3.500
1764973324.636279,0,0,29,3.625
1764973324.6402938,0,0,29,3.625
1764973324.6446579,0,0,26,3.250
1764973324.6484206,0,0,26,3.250
1764973324.6523104,0,0,27,3.375
1764973324.6562917,0,0,29,3.625
1764973324.6603003,0,0,29,3.625
1764973324.664309,0,0,26,3.250
1764973324.6682894,0,0,26,3.250
1764973324.672292,0,0,27,3.375
1764973324.676291,0,0,28,3.500
1764973324.6802974,0,0,29,3.625
1764973324.684295,0,0,26,3.250
1764973324.6882932,0,0,26,3.250
1764973324.6922848,0,0,27,3.375
1764973324.6962745,0,0,28,3.500
1764973324.700295,0,0,29,3.625
1764973324.7042956,0,0,26,3.250
1764973324.7082896,0,0,25,3.125
1764973324.7122927,0,0,26,3.250
1764973324.7162912,0,0,28,3.500
1764973324.720298,0,0,29,3.625
1764973324.7242928,0,0,26,3.250
1764973324.7282927,0,0,26,3.250
1764973324.7322943,0,0,27,3.375
1764973324.7362893,0,0,28,3.500
1764973324.740296,0,0,29,3.625
1764973324.7442908,0,0,27,3.375
1764973324.7482915,0,0,25,3.125
1764973324.7522907,0,0,27,3.375
1764973324.7562888,0,0,28,3.500
1764973324.7602985,0,0,29,3.625
1764973324.7642934,0,0,26,3.250
1764973324.7682922,0,0,26,3.250
1764973324.7722948,0,0,26,3.250
1764973324.7762895,0,0,28,3.500
1764973324.7802975,0,0,29,3.625
1764973324.7842917,0,0,27,3.375
1764973324.7882988,0,0,26,3.250
1764973324.792296,0,0,27,3.375
1764973324.7962887,0,0,28,3.500
1764973324.8003805,0,0,29,3.625
1764973324.8043096,0,0,26,3.250
1764973324.8082967,0,0,26,3.250
1764973324.8122866,0,0,27,3.375
1764973324.8162754,0,0,29,3.625
1764973324.8202858,0,0,29,3.625
1764973324.8242922,0,0,27,3.375
1764973324.828295,0,0,25,3.125
1764973324.8322809,0,0,27,3.375
1764973324.8362768,0,0,28,3.500
1764973324.840287,0,0,29,3.625
1764973324.8442912,0,0,26,3.250
1764973324.84829,0,0,26,3.250
1764973324.852346,0,0,26,3.250
1764973324.856281,0,0,29,3.625
1764973324.860293,0,0,29,3.625
1764973324.8643067,0,0,27,3.375
1764973324.8682919,0,0,26,3.250
1764973324.872285,0,0,26,3.250
1764973324.8762767,0,0,28,3.500
1764973324.8803294,0,0,29,3.625
1764973324.8842945,0,0,27,3.375
1764973324.8882937,0,0,26,3.250
1764973324.8922846,0,0,27,3.375
1764973324.8962762,0,0,28,3.500
1764973324.900296,0,0,29,3.625
1764973324.9042938,0,0,27,3.375
1764973324.9082906,0,0,26,3.250
1764973324.9122875,0,0,26,3.250
1764973324.9162896,0,0,28,3.500
1764973324.920299,0,0,30,3.750
1764973324.9242876,0,0,27,3.375
1764973324.9282863,0,0,26,3.250
1764973324.9322915,0,0,27,3.375
1764973324.9362917,0,0,28,3.500
1764973324.9402962,0,0,29,3.625
1764973324.944289,0,0,27,3.375
1764973324.948286,0,0,25,3.125
1764973324.9522762,0,0,26,3.250
1764973324.9562726,0,0,28,3.500
1764973324.9602942,0,0,29,3.625
1764973324.9642923,0,0,28,3.500
1764973324.9682899,0,0,25,3.125
1764973324.9722927,0,0,27,3.375
1764973324.9762871,0,0,28,3.500
1764973324.9803104,0,0,29,3.625
1764973324.9842918,0,0,27,3.375
1764973324.9882905,0,0,26,3.250
1764973324.992285,0,0,26,3.250
1764973324.996286,0,0,28,3.500
1764973325.0052814,0,0,25,3.125
1764973325.008318,0,0,25,3.125
1764973325.0122921,0,0,26,3.250
1764973325.0162718,0,0,28,3.500
1764973325.0202942,0,0,29,3.625
1764973325.0242949,0,0,28,3.500
1764973325.028293,0,0,25,3.125
1764973325.0322778,0,0,26,3.250
1764973325.0362709,0,0,28,3.500
1764973325.040295,0,0,29,3.625
1764973325.0442948,0,0,28,3.500
1764973325.048292,0,0,26,3.250
1764973325.0522947,0,0,26,3.250
1764973325.0562887,0,0,28,3.500
1764973325.0602953,0,0,29,3.625
1764973325.064289,0,0,26,3.250
1764973325.068297,0,0,26,3.250
1764973325.0722954,0,0,28,3.500
1764973325.076275,0,0,29,3.625
1764973325.080292,0,0,28,3.500
1764973325.0842893,0,0,25,3.125
1764973325.0882902,0,0,26,3.250
1764973325.0922813,0,0,28,3.500
1764973325.0962722,0,0,28,3.500
1764973325.1002944,0,0,28,3.500
1764973325.1042926,0,0,25,3.125
1764973325.1082885,0,0,26,3.250
1764973325.1122887,0,0,27,3.375
1764973325.1162877,0,0,29,3.625
1764973325.1202943,0,0,28,3.500
1764973325.1242857,0,0,26,3.250
1764973325.1282878,0,0,26,3.250
1764973325.132292,0,0,28,3.500
1764973325.1362898,0,0,29,3.625
1764973325.1402864,0,0,28,3.500
1764973325.144284,0,0,26,3.250
1764973325.1482852,0,0,26,3.250
1764973325.1522899,0,0,28,3.500
1764973325.1562872,0,0,29,3.625
1764973325.1602936,0,0,29,3.625
1764973325.1642857,0,0,25,3.125
1764973325.1682842,0,0,26,3.250
1764973325.1722934,0,0,28,3.500
1764973325.1762865,0,0,29,3.625
1764973325.1803062,0,0,28,3.500
1764973325.1842897,0,0,25,3.125
1764973325.188285,0,0,26,3.250
1764973325.1922839,0,0,28,3.500
1764973325.1962876,0,0,29,3.625
1764973325.2002878,0,0,28,3.500
1764973325.2043612,0,0,26,3.250
1764973325.2082975,0,0,26,3.250
1764973325.212289,0,0,27,3.375
1764973325.2162867,0,0,29,3.625
1764973325.2202876,0,0,28,3.500
1764973325.2242882,0,0,26,3.250
1764973325.2282856,0,0,26,3.250
1764973325.2322743,0,0,27,3.375
1764973325.236271,0,0,28,3.500
1764973325.240294,0,0,29,3.625
1764973325.2443562,0,0,26,3.250
1764973325.2482908,0,0,26,3.250
1764973325.2522922,0,0,27,3.375
1764973325.2562885,0,0,28,3.500
1764973325.2602954,0,0,29,3.625
1764973325.2642882,0,0,25,3.125
1764973325.2682874,0,0,26,3.250
1764973325.2722862,0,0,27,3.375
1764973325.276283,0,0,28,3.500
1764973325.2802954,0,0,28,3.500
1764973325.2843237,0,0,25,3.125
1764973325.2882955,0,0,26,3.250
1764973325.292293,0,0,27,3.375
1764973325.2962885,0,0,29,3.625
1764973325.3002975,0,0,29,3.625
1764973325.3042743,0,0,25,3.125
1764973325.3082712,0,0,26,3.250
1764973325.3122785,0,0,27,3.375
1764973325.3162699,0,0,28,3.500
1764973325.3202732,0,0,29,3.625
1764973325.3242717,0,0,26,3.250
1764973325.3282695,0,0,26,3.250
1764973325.332292,0,0,27,3.375
1764973325.336284,0,0,28,3.500
1764973325.3402889,0,0,29,3.625
1764973325.344287,0,0,26,3.250
1764973325.348285,0,0,26,3.250
1764973325.3522856,0,0,28,3.500
1764973325.3562832,0,0,29,3.625
1764973325.36029,0,0,29,3.625
1764973325.3642826,0,0,26,3.250
1764973325.368286,0,0,26,3.250
1764973325.3722887,0,0,27,3.375
1764973325.3762825,0,0,28,3.500
1764973325.380284,0,0,29,3.625
1764973325.3843033,0,0,26,3.250
1764973325.388271,0,0,26,3.250
1764973325.3922856,0,0,27,3.375
1764973325.3962848,0,0,29,3.625
1764973325.4002883,0,0,29,3.625
1764973325.404355,0,0,26,3.250
1764973325.408301,0,0,26,3.250
1764973325.4122825,0,0,27,3.375
1764973325.4162686,0,0,28,3.500
1764973325.420287,0,0,29,3.625
1764973325.4242861,0,0,26,3.250
1764973325.428283,0,0,26,3.250
1764973325.4322765,0,0,27,3.375
1764973325.4362695,0,0,29,3.625
1764973325.4402921,0,0,29,3.625
1764973325.4442892,0,0,26,3.250
1764973325.448282,0,0,26,3.250
1764973325.4522777,0,0,27,3.375
1764973325.4562783,0,0,29,3.625
1764973325.4602976,0,0,28,3.500
1764973325.4642844,0,0,26,3.250
1764973325.46828,0,0,26,3.250
1764973325.4722838,0,0,27,3.375
1764973325.4762843,0,0,29,3.625
1764973325.48029,0,0,29,3.625
1764973325.4843042,0,0,26,3.250
1764973325.4882677,0,0,26,3.250
1764973325.4922862,0,0,27,3.375
1764973325.496284,0,0,28,3.500
1764973325.5002887,0,0,29,3.625
1764973325.5042846,0,0,26,3.250
1764973325.5082822,0,0,26,3.250
1764973325.5122843,0,0,27,3.375
1764973325.516283,0,0,28,3.500
1764973325.5202901,0,0,29,3.625
1764973325.5242832,0,0,26,3.250
1764973325.5282807,0,0,26,3.250
1764973325.5322864,0,0,27,3.375
1764973325.5362792,0,0,28,3.500
1764973325.5402904,0,0,29,3.625
1764973325.5442853,0,0,27,3.375
1764973325.5482824,0,0,26,3.250
1764973325.55228,0,0,27,3.375
1764973325.5562816,0,0,28,3.500
1764973325.560294,0,0,29,3.625
1764973325.5642838,0,0,27,3.375
1764973325.5682805,0,0,26,3.250
1764973325.5722852,0,0,26,3.250
1764973325.5762806,0,0,28,3.500
1764973325.580282,0,0,29,3.625
1764973325.5843124,0,0,26,3.250
1764973325.5882847,0,0,26,3.250
1764973325.5922813,0,0,27,3.375
1764973325.5962787,0,0,29,3.625
1764973325.6002874,0,0,28,3.500
1764973325.604363,0,0,27,3.375
1764973325.6083002,0,0,25,3.125
1764973325.6122808,0,0,27,3.375
1764973325.6162636,0,0,28,3.500
1764973325.620286,0,0,29,3.625
1764973325.6242876,0,0,27,3.375
1764973325.6282828,0,0,26,3.250
1764973325.6322734,0,0,27,3.375
1764973325.636263,0,0,28,3.500
1764973325.6402779,0,0,29,3.625
1764973325.644654,0,0,27,3.375
1764973325.6484246,0,0,26,3.250
1764973325.6523042,0,0,27,3.375
1764973325.6562898,0,0,28,3.500
1764973325.6602929,0,0,29,3.625
1764973325.6642876,0,0,27,3.375
1764973325.668282,0,0,26,3.250
1764973325.6722872,0,0,27,3.375
1764973325.6762793,0,0,28,3.500
1764973325.680283,0,0,30,3.750
1764973325.6842785,0,0,26,3.250
1764973325.6883175,0,0,26,3.250
1764973325.6922889,0,0,28,3.500
1764973325.6962862,0,0,29,3.625
1764973325.7002816,0,0,27,3.375
1764973325.7042618,0,0,25,3.125
1764973325.7082636,0,0,26,3.250
1764973325.7122867,0,0,28,3.500
1764973325.7162828,0,0,29,3.625
1764973325.7202857,0,0,27,3.375
1764973325.7242785,0,0,25,3.125
1764973325.7282774,0,0,26,3.250
1764973325.7322838,0,0,29,3.625
1764973325.7362766,0,0,29,3.625
1764973325.7402833,0,0,28,3.500
1764973325.7442768,0,0,25,3.125
1764973325.7482758,0,0,27,3.375
1764973325.752275,0,0,28,3.500
1764973325.7562788,0,0,29,3.625
1764973325.7602882,0,0,28,3.500
1764973325.7642796,0,0,26,3.250
1764973325.7682738,0,0,27,3.375
1764973325.772279,0,0,28,3.500
1764973325.7762785,0,0,29,3.625
1764973325.780279,0,0,28,3.500
1764973325.7842762,0,0,25,3.125
1764973325.7883084,0,0,26,3.250
1764973325.792289,0,0,28,3.500
1764973325.7962806,0,0,29,3.625
1764973325.800285,0,0,28,3.500
1764973325.8043516,0,0,25,3.125
1764973325.808296,0,0,26,3.250
1764973325.812275,0,0,28,3.500
1764973325.8162606,0,0,29,3.625
1764973325.820279,0,0,28,3.500
1764973325.824285,0,0,26,3.250
1764973325.828282,0,0,26,3.250
1764973325.8322685,0,0,28,3.500
1764973325.8362603,0,0,29,3.625
1764973325.840281,0,0,28,3.500
1764973325.8442826,0,0,26,3.250
1764973325.8482797,0,0,26,3.250
1764973325.85228,0,0,28,3.500
1764973325.8563051,0,0,29,3.625
1764973325.86031,0,0,28,3.500
1764973325.864267,0,0,26,3.250
1764973325.8682637,0,0,26,3.250
1764973325.872289,0,0,28,3.500
1764973325.87628,0,0,29,3.625
1764973325.880283,0,0,28,3.500
1764973325.8842618,0,0,26,3.250
1764973325.888298,0,0,26,3.250
1764973325.892283,0,0,28,3.500
1764973325.8962626,0,0,29,3.625
1764973325.9002695,0,0,28,3.500
1764973325.9042814,0,0,25,3.125
1764973325.9082792,0,0,26,3.250
1764973325.9122813,0,0,28,3.500
1764973325.9162781,0,0,29,3.625
1764973325.9202864,0,0,29,3.625
1764973325.9242759,0,0,25,3.125
1764973325.9282787,0,0,26,3.250
1764973325.932283,0,0,28,3.500
1764973325.9362772,0,0,29,3.625
1764973325.940281,0,0,28,3.500
1764973325.9442763,0,0,25,3.125
1764973325.9482782,0,0,26,3.250
1764973325.9522653,0,0,28,3.500
1764973325.9562595,0,0,28,3.500
1764973325.9602704,0,0,28,3.500
1764973325.9642777,0,0,25,3.125
1764973325.9682753,0,0,26,3.250
1764973325.9722822,0,0,28,3.500
1764973325.9762795,0,0,29,3.625
1764973325.9802852,0,0,28,3.500
1764973325.9842741,0,0,26,3.250
1764973325.988275,0,0,26,3.250
1764973325.992296,0,0,27,3.375
1764973325.9962783,0,0,28,3.500
1764973326.000284,0,0,28,3.500
1764973326.0092354,0,0,26,3.250
1764973326.012317,0,0,28,3.500
1764973326.0162828,0,0,28,3.500
1764973326.0202816,0,0,29,3.625
1764973326.0242596,0,0,26,3.250
1764973326.0282588,0,0,26,3.250
1764973326.0322814,0,0,27,3.375
1764973326.0362804,0,0,28,3.500
1764973326.040283,0,0,29,3.625
1764973326.044263,0,0,26,3.250
1764973326.048258,0,0,26,3.250
1764973326.0522807,0,0,28,3.500
1764973326.0562809,0,0,29,3.625
1764973326.0602844,0,0,29,3.625
1764973326.064279,0,0,26,3.250
1764973326.0682743,0,0,26,3.250
1764973326.0722952,0,0,27,3.375
1764973326.0762877,0,0,29,3.625
1764973326.0802836,0,0,29,3.625
1764973326.0842624,0,0,26,3.250
1764973326.0882607,0,0,26,3.250
1764973326.092317,0,0,28,3.500
1764973326.0962768,0,0,28,3.500
1764973326.1002774,0,0,29,3.625
1764973326.1042614,0,0,26,3.250
1764973326.1082616,0,0,26,3.250
1764973326.1122785,0,0,27,3.375
1764973326.1162727,0,0,28,3.500
1764973326.1202831,0,0,29,3.625
1764973326.1242757,0,0,26,3.250
1764973326.1282752,0,0,26,3.250
1764973326.132266,0,0,27,3.375
1764973326.1362562,0,0,28,3.500
1764973326.1402733,0,0,29,3.625
1764973326.144278,0,0,26,3.250
1764973326.1482744,0,0,26,3.250
1764973326.152274,0,0,27,3.375
1764973326.1562707,0,0,28,3.500
1764973326.1602755,0,0,29,3.625
1764973326.1642754,0,0,25,3.125
1764973326.1682746,0,0,26,3.250
1764973326.172278,0,0,27,3.375
1764973326.176272,0,0,28,3.500
1764973326.1802714,0,0,29,3.625
1764973326.1842713,0,0,27,3.375
1764973326.1882737,0,0,26,3.250
1764973326.1922894,0,0,27,3.375
1764973326.1962733,0,0,28,3.500
1764973326.2002752,0,0,29,3.625
1764973326.2042558,0,0,26,3.250
1764973326.2083507,0,0,26,3.250
1764973326.2122931,0,0,27,3.375
1764973326.2162728,0,0,28,3.500
1764973326.2202709,0,0,29,3.625
1764973326.224274,0,0,26,3.250
1764973326.2282732,0,0,26,3.250
1764973326.232263,0,0,27,3.375
1764973326.2362576,0,0,28,3.500
1764973326.2402732,0,0,29,3.625
1764973326.2442775,0,0,26,3.250
1764973326.2482753,0,0,26,3.250
1764973326.2522817,0,0,27,3.375
1764973326.2562752,0,0,28,3.500
1764973326.2602868,0,0,29,3.625
1764973326.264286,0,0,25,3.125
1764973326.2682745,0,0,26,3.250
1764973326.2722678,0,0,27,3.375
1764973326.2762566,0,0,28,3.500
1764973326.2802732,0,0,29,3.625
1764973326.2842736,0,0,26,3.250
1764973326.288273,0,0,26,3.250
1764973326.2922747,0,0,27,3.375
1764973326.2962766,0,0,29,3.625
1764973326.3002708,0,0,29,3.625
1764973326.3042753,0,0,26,3.250
1764973326.308272,0,0,26,3.250
1764973326.3122714,0,0,28,3.500
1764973326.3162725,0,0,29,3.625
1764973326.3202825,0,0,26,3.250
1764973326.3242729,0,0,26,3.250
1764973326.3282695,0,0,26,3.250
1764973326.3322713,0,0,28,3.500
1764973326.3362563,0,0,29,3.625
1764973326.3402677,0,0,27,3.375
1764973326.3442717,0,0,25,3.125
1764973326.3482761,0,0,26,3.250
1764973326.3522716,0,0,28,3.500
1764973326.35627,0,0,29,3.625
1764973326.360281,0,0,27,3.375
1764973326.3642719,0,0,26,3.250
1764973326.368272,0,0,27,3.375
1764973326.3722737,0,0,29,3.625
1764973326.3762677,0,0,29,3.625
1764973326.3802752,0,0,27,3.375
1764973326.3842733,0,0,26,3.250
1764973326.3882709,0,0,27,3.375
1764973326.3922718,0,0,29,3.625
1764973326.3963022,0,0,29,3.625
1764973326.4002755,0,0,27,3.375
1764973326.404256,0,0,25,3.125
1764973326.4083476,0,0,27,3.375
1764973326.4122849,0,0,29,3.625
1764973326.416265,0,0,29,3.625
1764973326.4202697,0,0,27,3.375
1764973326.4242747,0,0,25,3.125
1764973326.4282713,0,0,25,3.125
1764973326.432259,0,0,28,3.500
1764973326.4362507,0,0,29,3.625
1764973326.4402716,0,0,27,3.375
1764973326.4442785,0,0,26,3.250
1764973326.4482746,0,0,26,3.250
1764973326.452265,0,0,28,3.500
1764973326.4562535,0,0,29,3.625
1764973326.4602613,0,0,27,3.375
1764973326.4642725,0,0,26,3.250
1764973326.4682791,0,0,26,3.250
1764973326.4722872,0,0,28,3.500
1764973326.476265,0,0,29,3.625
1764973326.480265,0,0,27,3.375
1764973326.4842672,0,0,25,3.125
1764973326.4882677,0,0,26,3.250
1764973326.4922624,0,0,28,3.500
1764973326.4962683,0,0,29,3.625
1764973326.5002646,0,0,28,3.500
1764973326.504274,0,0,25,3.125
1764973326.5082686,0,0,26,3.250
1764973326.512269,0,0,28,3.500
1764973326.5162692,0,0,29,3.625
1764973326.5202785,0,0,28,3.500
1764973326.5242665,0,0,25,3.125
1764973326.5282645,0,0,26,3.250
1764973326.5322702,0,0,29,3.625
1764973326.5362701,0,0,29,3.625
1764973326.5402725,0,0,27,3.375
1764973326.5442653,0,0,26,3.250
1764973326.5482652,0,0,26,3.250
1764973326.55227,0,0,28,3.500
1764973326.5562692,0,0,29,3.625
1764973326.5602763,0,0,27,3.375
1764973326.564265,0,0,26,3.250
1764973326.568268,0,0,26,3.250
1764973326.572269,0,0,28,3.500
1764973326.5762663,0,0,28,3.500
1764973326.5802734,0,0,27,3.375
1764973326.5842662,0,0,25,3.125
1764973326.5882647,0,0,26,3.250
1764973326.592265,0,0,28,3.500
1764973326.5963461,0,0,29,3.625
1764973326.6003237,0,0,28,3.500
1764973326.6043153,0,0,26,3.250
1764973326.608389,0,0,27,3.375
1764973326.6123226,0,0,28,3.500
1764973326.616295,0,0,29,3.625
1764973326.6203094,0,0,27,3.375
1764973326.62432,0,0,26,3.250
1764973326.628314,0,0,26,3.250
1764973326.6322968,0,0,28,3.500
1764973326.6362906,0,0,29,3.625
1764973326.6403143,0,0,28,3.500
1764973326.6447103,0,0,26,3.250
1764973326.6484885,0,0,26,3.250
1764973326.6523404,0,0,28,3.500
1764973326.6563137,0,0,28,3.500
1764973326.6603117,0,0,28,3.500
1764973326.664335,0,0,26,3.250
1764973326.6683152,0,0,26,3.250
1764973326.672311,0,0,28,3.500
1764973326.676306,0,0,29,3.625
1764973326.6803124,0,0,29,3.625
1764973326.6843138,0,0,26,3.250
1764973326.688313,0,0,26,3.250
1764973326.6923,0,0,28,3.500
1764973326.6962938,0,0,29,3.625
1764973326.7002735,0,0,28,3.500
1764973326.704273,0,0,25,3.125
1764973326.7082665,0,0,26,3.250
1764973326.7122664,0,0,28,3.500
1764973326.7162585,0,0,29,3.625
1764973326.7202644,0,0,28,3.500
1764973326.7242637,0,0,25,3.125
1764973326.7282612,0,0,26,3.250
1764973326.7322628,0,0,28,3.500
1764973326.7362604,0,0,29,3.625
1764973326.7402618,0,0,28,3.500
1764973326.7442613,0,0,26,3.250
1764973326.7482648,0,0,26,3.250
1764973326.7522683,0,0,28,3.500
1764973326.7562644,0,0,29,3.625
1764973326.7602713,0,0,28,3.500
1764973326.7642615,0,0,25,3.125
1764973326.7682633,0,0,26,3.250
1764973326.7722673,0,0,28,3.500
1764973326.7762601,0,0,28,3.500
1764973326.780267,0,0,28,3.500
1764973326.7842607,0,0,26,3.250
1764973326.788262,0,0,26,3.250
1764973326.7922704,0,0,27,3.375
1764973326.7962646,0,0,29,3.625
1764973326.8003728,0,0,28,3.500
1764973326.8043091,0,0,25,3.125
1764973326.8083913,0,0,26,3.250
1764973326.81232,0,0,28,3.500
1764973326.8162944,0,0,28,3.500
1764973326.8203099,0,0,29,3.625
1764973326.8243134,0,0,26,3.250
1764973326.828308,0,0,26,3.250
1764973326.8322976,0,0,28,3.500
1764973326.8362923,0,0,28,3.500
1764973326.8403091,0,0,28,3.500
1764973326.8443127,0,0,26,3.250
1764973326.8483071,0,0,25,3.125
1764973326.8523061,0,0,27,3.375
1764973326.8563137,0,0,28,3.500
1764973326.860321,0,0,29,3.625
1764973326.8643315,0,0,26,3.250
1764973326.868316,0,0,26,3.250
1764973326.8723001,0,0,27,3.375
1764973326.8762915,0,0,29,3.625
1764973326.8803105,0,0,29,3.625
1764973326.8843148,0,0,26,3.250
1764973326.88831,0,0,26,3.250
1764973326.8922992,0,0,27,3.375
1764973326.8962903,0,0,28,3.500
1764973326.900383,0,0,29,3.625
1764973326.9042742,0,0,26,3.250
1764973326.9082623,0,0,26,3.250
1764973326.9122498,0,0,27,3.375
1764973326.9162447,0,0,28,3.500
1764973326.920262,0,0,30,3.750
1764973326.9242647,0,0,26,3.250
1764973326.9282634,0,0,27,3.375
1764973326.9322534,0,0,28,3.500
1764973326.9362454,0,0,29,3.625
1764973326.940261,0,0,26,3.250
1764973326.944268,0,0,26,3.250
1764973326.9482641,0,0,27,3.375
1764973326.952253,0,0,28,3.500
1764973326.9562447,0,0,30,3.750
1764973326.9602582,0,0,26,3.250
1764973326.964268,0,0,26,3.250
1764973326.968266,0,0,27,3.375
1764973326.972266,0,0,29,3.625
1764973326.9762611,0,0,29,3.625
1764973326.9802685,0,0,27,3.375
1764973326.9842641,0,0,26,3.250
1764973326.9882655,0,0,27,3.375
1764973326.992264,0,0,28,3.500
1764973326.996262,0,0,29,3.625
1764973327.0002875,0,0,26,3.250
1764973327.0042665,0,0,26,3.250
1764973327.013271,0,0,29,3.625
1764973327.0162783,0,0,29,3.625
1764973327.0202715,0,0,26,3.250
1764973327.024322,0,0,25,3.125
1764973327.028305,0,0,27,3.375
1764973327.032283,0,0,28,3.500
1764973327.0362697,0,0,29,3.625
1764973327.0402687,0,0,26,3.250
1764973327.044248,0,0,26,3.250
1764973327.0482478,0,0,27,3.375
1764973327.0522761,0,0,28,3.500
1764973327.056288,0,0,29,3.625
1764973327.0602725,0,0,26,3.250
1764973327.0642788,0,0,26,3.250
1764973327.0682743,0,0,27,3.375
1764973327.072258,0,0,28,3.500
1764973327.0762486,0,0,29,3.625
1764973327.0802598,0,0,26,3.250
1764973327.0842628,0,0,25,3.125
1764973327.0882611,0,0,26,3.250
1764973327.0922549,0,0,28,3.500
1764973327.0962489,0,0,29,3.625
1764973327.1002762,0,0,26,3.250
1764973327.1042697,0,0,25,3.125
1764973327.1082633,0,0,27,3.375
1764973327.1122682,0,0,28,3.500
1764973327.116264,0,0,29,3.625
1764973327.120272,0,0,26,3.250
1764973327.1242635,0,0,26,3.250
1764973327.1282616,0,0,26,3.250
1764973327.1322672,0,0,28,3.500
1764973327.136267,0,0,29,3.625
1764973327.1402712,0,0,26,3.250
1764973327.1442645,0,0,25,3.125
1764973327.1482604,0,0,26,3.250
1764973327.152262,0,0,28,3.500
1764973327.1562648,0,0,29,3.625
1764973327.1602726,0,0,26,3.250
1764973327.1642652,0,0,25,3.125
1764973327.1682599,0,0,26,3.250
1764973327.1722515,0,0,29,3.625
1764973327.176247,0,0,29,3.625
1764973327.180267,0,0,26,3.250
1764973327.184267,0,0,26,3.250
1764973327.1882608,0,0,26,3.250
1764973327.1922617,0,0,28,3.500
1764973327.196261,0,0,29,3.625
1764973327.2002642,0,0,27,3.375
1764973327.2043538,0,0,26,3.250
1764973327.2082884,0,0,27,3.375
1764973327.212395,0,0,28,3.500
1764973327.2163267,0,0,29,3.625
1764973327.2203143,0,0,27,3.375
1764973327.2242885,0,0,26,3.250
1764973327.2282875,0,0,26,3.250
1764973327.2323174,0,0,28,3.500
1764973327.236309,0,0,29,3.625
1764973327.2403107,0,0,27,3.375
1764973327.244289,0,0,26,3.250
1764973327.2482882,0,0,26,3.250
1764973327.2523093,0,0,28,3.500
1764973327.2562976,0,0,29,3.625
1764973327.2603025,0,0,28,3.500
1764973327.2643101,0,0,26,3.250
1764973327.2683146,0,0,27,3.375
1764973327.2723212,0,0,28,3.500
1764973327.276305,0,0,29,3.625
1764973327.2803066,0,0,27,3.375
1764973327.2842865,0,0,26,3.250
1764973327.2882855,0,0,27,3.375
1764973327.2923346,0,0,28,3.500
1764973327.2963042,0,0,29,3.625
1764973327.3003085,0,0,27,3.375
1764973327.3043034,0,0,26,3.250
1764973327.3082454,0,0,26,3.250
1764973327.3122704,0,0,28,3.500
1764973327.3162622,0,0,29,3.625
1764973327.3202674,0,0,27,3.375
1764973327.324261,0,0,26,3.250
1764973327.3282623,0,0,26,3.250
1764973327.3322654,0,0,28,3.500
1764973327.3362606,0,0,29,3.625
1764973327.3402653,0,0,27,3.375
1764973327.3442574,0,0,26,3.250
1764973327.3482578,0,0,26,3.250
1764973327.3522503,0,0,28,3.500
1764973327.3562453,0,0,29,3.625
1764973327.3602526,0,0,27,3.375
1764973327.364259,0,0,26,3.250
1764973327.3682578,0,0,26,3.250
1764973327.3722637,0,0,28,3.500
1764973327.3762608,0,0,29,3.625
1764973327.3802667,0,0,28,3.500
1764973327.384258,0,0,26,3.250
1764973327.3882582,0,0,26,3.250
1764973327.3922591,0,0,28,3.500
1764973327.3962598,0,0,29,3.625
1764973327.4002683,0,0,28,3.500
1764973327.404273,0,0,26,3.250
1764973327.4082575,0,0,26,3.250
1764973327.4123397,0,0,28,3.500
1764973327.4162734,0,0,29,3.625
1764973327.4202623,0,0,28,3.500
1764973327.4242437,0,0,26,3.250
1764973327.4282417,0,0,26,3.250
1764973327.432265,0,0,28,3.500
1764973327.43626,0,0,28,3.500
1764973327.4402668,0,0,28,3.500
1764973327.4442453,0,0,25,3.125
1764973327.4482398,0,0,26,3.250
1764973327.452258,0,0,28,3.500
1764973327.4562547,0,0,29,3.625
1764973327.4602578,0,0,28,3.500
1764973327.464255,0,0,26,3.250
1764973327.4682724,0,0,26,3.250
1764973327.47226,0,0,28,3.500
1764973327.47626,0,0,28,3.500
1764973327.4802644,0,0,28,3.500
1764973327.4842439,0,0,25,3.125
1764973327.4882407,0,0,26,3.250
1764973327.4922583,0,0,28,3.500
1764973327.496258,0,0,28,3.500
1764973327.5002592,0,0,28,3.500
1764973327.5042398,0,0,25,3.125
1764973327.508277,0,0,26,3.250
1764973327.512257,0,0,28,3.500
1764973327.5162537,0,0,28,3.500
1764973327.5202608,0,0,29,3.625
1764973327.5242543,0,0,26,3.250
1764973327.5282547,0,0,26,3.250
1764973327.5322602,0,0,28,3.500
1764973327.536252,0,0,29,3.625
1764973327.5402577,0,0,29,3.625
1764973327.5442548,0,0,26,3.250
1764973327.548254,0,0,28,3.500
1764973327.5522568,0,0,29,3.625
1764973327.5562518,0,0,28,3.500
1764973327.5602598,0,0,26,3.250
1764973327.5642543,0,0,26,3.250
1764973327.5682554,0,0,28,3.500
1764973327.5722582,0,0,29,3.625
1764973327.5762503,0,0,28,3.500
1764973327.580259,0,0,25,3.125
1764973327.5842524,0,0,26,3.250
1764973327.5882528,0,0,27,3.375
1764973327.5922537,0,0,29,3.625
1764973327.5962534,0,0,29,3.625
1764973327.600257,0,0,25,3.125
1764973327.6042507,0,0,26,3.250
1764973327.608354,0,0,28,3.500
1764973327.6123893,0,0,29,3.625
1764973327.6163228,0,0,29,3.625
1764973327.620305,0,0,26,3.250
1764973327.6242824,0,0,26,3.250
1764973327.6282802,0,0,27,3.375
1764973327.632304,0,0,29,3.625
1764973327.6362984,0,0,29,3.625
1764973327.640327,0,0,26,3.250
1764973327.6446662,0,0,26,3.250
1764973327.6485353,0,0,28,3.500
1764973327.6523318,0,0,28,3.500
1764973327.6562908,0,0,28,3.500
1764973327.660285,0,0,25,3.125
1764973327.6642823,0,0,26,3.250
1764973327.6682816,0,0,27,3.375
1764973327.6722946,0,0,28,3.500
1764973327.676292,0,0,29,3.625
1764973327.680301,0,0,26,3.250
1764973327.6842964,0,0,26,3.250
1764973327.6882966,0,0,27,3.375
1764973327.6922967,0,0,29,3.625
1764973327.696296,0,0,29,3.625
1764973327.700297,0,0,26,3.250
1764973327.7047544,0,0,25,3.125
1764973327.709724,0,0,27,3.375
1764973327.7123215,0,0,28,3.500
1764973327.7162447,0,0,29,3.625
1764973327.7202415,0,0,26,3.250
1764973327.724237,0,0,26,3.250
1764973327.7282362,0,0,27,3.375
1764973327.7322376,0,0,28,3.500
1764973327.7362359,0,0,29,3.625
1764973327.7402384,0,0,26,3.250
1764973327.7442355,0,0,25,3.125
1764973327.748235,0,0,27,3.375
1764973327.752259,0,0,28,3.500
1764973327.7562537,0,0,29,3.625
1764973327.7602599,0,0,26,3.250
1764973327.764253,0,0,26,3.250
1764973327.7682478,0,0,27,3.375
1764973327.7722526,0,0,29,3.625
1764973327.7762513,0,0,29,3.625
1764973327.780257,0,0,26,3.250
1764973327.7842488,0,0,26,3.250
1764973327.7882478,0,0,27,3.375
1764973327.7922575,0,0,28,3.500
1764973327.7962508,0,0,29,3.625
1764973327.8002572,0,0,26,3.250
1764973327.8042498,0,0,25,3.125
1764973327.808291,0,0,26,3.250
1764973327.8124666,0,0,28,3.500
1764973327.8162649,0,0,30,3.750
1764973327.8202527,0,0,26,3.250
1764973327.824237,0,0,26,3.250
1764973327.8282363,0,0,27,3.375
1764973327.8322525,0,0,28,3.500
1764973327.836249,0,0,30,3.750
1764973327.8402534,0,0,26,3.250
1764973327.8442342,0,0,26,3.250
1764973327.8482335,0,0,27,3.375
1764973327.8522549,0,0,29,3.625
1764973327.8562527,0,0,29,3.625
1764973327.8602507,0,0,26,3.250
1764973327.864252,0,0,26,3.250
1764973327.8682532,0,0,26,3.250
1764973327.8722565,0,0,28,3.500
1764973327.8762608,0,0,29,3.625
1764973327.8802543,0,0,26,3.250
1764973327.8842359,0,0,26,3.250
1764973327.888237,0,0,27,3.375
1764973327.8922515,0,0,28,3.500
1764973327.8962486,0,0,29,3.625
1764973327.9002495,0,0,27,3.375
1764973327.9042335,0,0,26,3.250
1764973327.9082336,0,0,27,3.375
1764973327.9122605,0,0,29,3.625
1764973327.9162486,0,0,29,3.625
1764973327.9202526,0,0,27,3.375
1764973327.9242442,0,0,26,3.250
1764973327.9282482,0,0,27,3.375
1764973327.932241,0,0,29,3.625
1764973327.9362319,0,0,29,3.625
1764973327.940238,0,0,26,3.250
1764973327.9442499,0,0,26,3.250
1764973327.948248,0,0,26,3.250
1764973327.9522386,0,0,29,3.625
1764973327.9562325,0,0,29,3.625
1764973327.9602377,0,0,26,3.250
1764973327.9642453,0,0,26,3.250
1764973327.9682446,0,0,26,3.250
1764973327.9722514,0,0,28,3.500
1764973327.9762485,0,0,29,3.625
1764973327.9802525,0,0,27,3.375
1764973327.9842427,0,0,25,3.125
1764973327.9882445,0,0,26,3.250
1764973327.9922502,0,0,28,3.500
1764973327.9962475,0,0,29,3.625
1764973328.000253,0,0,27,3.375
1764973328.0042443,0,0,26,3.250
1764973328.0082443,0,0,26,3.250
1764973328.0172012,0,0,29,3.625
1764973328.020365,0,0,27,3.375
1764973328.024238,0,0,25,3.125
1764973328.0282314,0,0,26,3.250
1764973328.0322502,0,0,28,3.500
1764973328.0362496,0,0,29,3.625
1764973328.040253,0,0,27,3.375
1764973328.0442324,0,0,26,3.250
1764973328.0482275,0,0,26,3.250
1764973328.0522525,0,0,28,3.500
1764973328.0562506,0,0,29,3.625
1764973328.060255,0,0,27,3.375
1764973328.0642493,0,0,25,3.125
1764973328.0682461,0,0,26,3.250
1764973328.0722497,0,0,28,3.500
1764973328.0762572,0,0,29,3.625
1764973328.0802536,0,0,27,3.375
1764973328.0842311,0,0,25,3.125
1764973328.0882337,0,0,26,3.250
1764973328.092245,0,0,28,3.500
1764973328.0962458,0,0,29,3.625
1764973328.10025,0,0,27,3.375
1764973328.1042318,0,0,25,3.125
1764973328.108231,0,0,26,3.250
1764973328.1122682,0,0,27,3.375
1764973328.1162446,0,0,29,3.625
1764973328.1202526,0,0,28,3.500
1764973328.1242454,0,0,26,3.250
1764973328.1282456,0,0,26,3.250
1764973328.1322346,0,0,28,3.500
1764973328.13623,0,0,29,3.625
1764973328.14024,0,0,27,3.375
1764973328.144248,0,0,26,3.250
1764973328.1482441,0,0,26,3.250
1764973328.152249,0,0,28,3.500
1764973328.1562421,0,0,29,3.625
1764973328.160249,0,0,28,3.500
1764973328.1642427,0,0,26,3.250
1764973328.1682467,0,0,28,3.500
1764973328.1722486,0,0,28,3.500
1764973328.1762412,0,0,28,3.500
1764973328.1802497,0,0,25,3.125
1764973328.1842437,0,0,26,3.250
1764973328.1882432,0,0,28,3.500
1764973328.1922493,0,0,29,3.625
1764973328.1962435,0,0,28,3.500
1764973328.2002437,0,0,26,3.250
1764973328.204225,0,0,26,3.250
1764973328.2082298,0,0,28,3.500
1764973328.2123394,0,0,29,3.625
1764973328.2164059,0,0,28,3.500
1764973328.220307,0,0,26,3.250
1764973328.2242725,0,0,27,3.375
1764973328.2282717,0,0,28,3.500
1764973328.2322972,0,0,29,3.625
1764973328.2362888,0,0,28,3.500
1764973328.2402868,0,0,26,3.250
1764973328.2442658,0,0,26,3.250
1764973328.2482696,0,0,28,3.500
1764973328.2522938,0,0,29,3.625
1764973328.2562926,0,0,28,3.500
1764973328.2602959,0,0,25,3.125
1764973328.2642868,0,0,26,3.250
1764973328.2682855,0,0,28,3.500
1764973328.2723036,0,0,29,3.625
1764973328.2762823,0,0,29,3.625
1764973328.2802784,0,0,25,3.125
1764973328.284269,0,0,26,3.250
1764973328.2882676,0,0,28,3.500
1764973328.2922938,0,0,29,3.625
1764973328.2962925,0,0,28,3.500
1764973328.3002906,0,0,26,3.250
1764973328.3042696,0,0,26,3.250
1764973328.3082666,0,0,28,3.500
1764973328.3123827,0,0,28,3.500
1764973328.3162487,0,0,28,3.500
1764973328.3202534,0,0,25,3.125
1764973328.3242452,0,0,26,3.250
1764973328.3282413,0,0,28,3.500
1764973328.3322456,0,0,29,3.625
1764973328.3362463,0,0,28,3.500
1764973328.34025,0,0,26,3.250
1764973328.3442442,0,0,26,3.250
1764973328.3482394,0,0,27,3.375
1764973328.3522449,0,0,28,3.500
1764973328.3562398,0,0,28,3.500
1764973328.360249,0,0,25,3.125
1764973328.3642418,0,0,26,3.250
1764973328.3682437,0,0,27,3.375
1764973328.3722441,0,0,29,3.625
1764973328.37624,0,0,29,3.625
1764973328.3802435,0,0,25,3.125
1764973328.3842435,0,0,26,3.250
1764973328.3882425,0,0,27,3.375
1764973328.3922403,0,0,28,3.500
1764973328.3962393,0,0,28,3.500
1764973328.400248,0,0,26,3.250
1764973328.4042428,0,0,26,3.250
1764973328.4082403,0,0,28,3.500
1764973328.4122555,0,0,28,3.500
1764973328.4164507,0,0,29,3.625
1764973328.4202576,0,0,26,3.250
1764973328.4242282,0,0,26,3.250
1764973328.4282248,0,0,28,3.500
1764973328.4322486,0,0,29,3.625
1764973328.4362402,0,0,29,3.625
1764973328.440245,0,0,26,3.250
1764973328.444227,0,0,26,3.250
1764973328.4482243,0,0,27,3.375
1764973328.452232,0,0,29,3.625
1764973328.4562273,0,0,29,3.625
1764973328.4602318,0,0,26,3.250
1764973328.4642417,0,0,26,3.250
1764973328.4682417,0,0,28,3.500
1764973328.4722445,0,0,29,3.625
1764973328.4764414,0,0,29,3.625
1764973328.4802444,0,0,26,3.250
1764973328.4842236,0,0,26,3.250
1764973328.4882278,0,0,27,3.375
1764973328.4922435,0,0,28,3.500
1764973328.4962435,0,0,29,3.625
1764973328.5002406,0,0,25,3.125
1764973328.5042236,0,0,26,3.250
1764973328.5082252,0,0,27,3.375
1764973328.5122445,0,0,29,3.625
1764973328.516279,0,0,29,3.625
1764973328.5202467,0,0,26,3.250
1764973328.5242376,0,0,26,3.250
1764973328.5282378,0,0,27,3.375
1764973328.5322464,0,0,29,3.625
1764973328.536242,0,0,29,3.625
1764973328.5402465,0,0,26,3.250
1764973328.5442379,0,0,26,3.250
1764973328.5482364,0,0,27,3.375
1764973328.5522423,0,0,29,3.625
1764973328.5562387,0,0,29,3.625
1764973328.5602446,0,0,26,3.250
1764973328.5642374,0,0,26,3.250
1764973328.5682373,0,0,27,3.375
1764973328.572242,0,0,28,3.500
1764973328.5762382,0,0,29,3.625
1764973328.5802453,0,0,26,3.250
1764973328.5842433,0,0,26,3.250
1764973328.5882368,0,0,27,3.375
1764973328.5922377,0,0,29,3.625
1764973328.596235,0,0,29,3.625
1764973328.6002455,0,0,26,3.250
1764973328.6042387,0,0,26,3.250
1764973328.6082363,0,0,27,3.375
1764973328.6122396,0,0,29,3.625
1764973328.616486,0,0,29,3.625
1764973328.6202602,0,0,26,3.250
1764973328.6242247,0,0,25,3.125
1764973328.6282184,0,0,26,3.250
1764973328.632246,0,0,28,3.500
1764973328.6362402,0,0,29,3.625
1764973328.6402435,0,0,26,3.250
1764973328.6447885,0,0,26,3.250
1764973328.648348,0,0,27,3.375
1764973328.6522527,0,0,28,3.500
1764973328.6562276,0,0,29,3.625
1764973328.6602285,0,0,26,3.250
1764973328.664232,0,0,26,3.250
1764973328.6682258,0,0,26,3.250
1764973328.672228,0,0,28,3.500
1764973328.6762366,0,0,29,3.625
1764973328.6802442,0,0,26,3.250
1764973328.6842263,0,0,26,3.250
1764973328.6882243,0,0,27,3.375
1764973328.6922424,0,0,28,3.500
1764973328.6962376,0,0,29,3.625
1764973328.7002387,0,0,26,3.250
1764973328.7042236,0,0,25,3.125
1764973328.708225,0,0,26,3.250
1764973328.7122483,0,0,29,3.625
1764973328.7162783,0,0,29,3.625
1764973328.7202446,0,0,26,3.250
1764973328.72424,0,0,26,3.250
1764973328.7282376,0,0,27,3.375
1764973328.7322412,0,0,29,3.625
1764973328.7362401,0,0,29,3.625
1764973328.7402418,0,0,26,3.250
1764973328.7442338,0,0,26,3.250
1764973328.7482367,0,0,26,3.250
1764973328.7522423,0,0,28,3.500
1764973328.7562377,0,0,29,3.625
1764973328.7602415,0,0,27,3.375
1764973328.7642365,0,0,26,3.250
1764973328.7682393,0,0,27,3.375
1764973328.772243,0,0,28,3.500
1764973328.7762363,0,0,30,3.750
1764973328.780242,0,0,27,3.375
1764973328.7842352,0,0,26,3.250
1764973328.7882369,0,0,28,3.500
1764973328.7922463,0,0,29,3.625
1764973328.796237,0,0,27,3.375
1764973328.8002436,0,0,26,3.250
1764973328.804236,0,0,26,3.250
1764973328.8082335,0,0,29,3.625
1764973328.8122401,0,0,29,3.625
1764973328.8164792,0,0,27,3.375
1764973328.8202603,0,0,25,3.125
1764973328.8242204,0,0,26,3.250
1764973328.8282182,0,0,28,3.500
1764973328.8322449,0,0,29,3.625
1764973328.8362398,0,0,27,3.375
1764973328.8402407,0,0,26,3.250
1764973328.8442175,0,0,26,3.250
1764973328.8482199,0,0,28,3.500
1764973328.8522391,0,0,29,3.625
1764973328.8562407,0,0,27,3.375
1764973328.8602474,0,0,26,3.250
1764973328.86424,0,0,26,3.250
1764973328.868235,0,0,28,3.500
1764973328.8722394,0,0,29,3.625
1764973328.8762376,0,0,27,3.375
1764973328.8802426,0,0,26,3.250
1764973328.8842497,0,0,26,3.250
1764973328.8882391,0,0,28,3.500
1764973328.8922281,0,0,29,3.625
1764973328.8962233,0,0,28,3.500
1764973328.9002333,0,0,26,3.250
1764973328.9042397,0,0,26,3.250
1764973328.908235,0,0,28,3.500
1764973328.9122286,0,0,29,3.625
1764973328.9162178,0,0,28,3.500
1764973328.9202328,0,0,25,3.125
1764973328.924239,0,0,26,3.250
1764973328.9282362,0,0,28,3.500
1764973328.9322376,0,0,28,3.500
1764973328.9362314,0,0,27,3.375
1764973328.9402452,0,0,26,3.250
1764973328.9442358,0,0,26,3.250
1764973328.9482384,0,0,28,3.500
1764973328.9522252,0,0,29,3.625
1764973328.9562173,0,0,28,3.500
1764973328.9602277,0,0,26,3.250
1764973328.964239,0,0,26,3.250
1764973328.9682374,0,0,27,3.375
1764973328.97224,0,0,29,3.625
1764973328.9762313,0,0,28,3.500
1764973328.9802394,0,0,25,3.125
1764973328.9842367,0,0,27,3.375
1764973328.9882362,0,0,28,3.500
1764973328.9922395,0,0,29,3.625
1764973328.9962323,0,0,28,3.500
1764973329.0002394,0,0,26,3.250
1764973329.004235,0,0,26,3.250
1764973329.0082326,0,0,27,3.375
1764973329.012228,0,0,29,3.625
1764973329.0211546,0,0,26,3.250
1764973329.0243492,0,0,26,3.250
1764973329.0282407,0,0,28,3.500
1764973329.0322328,0,0,29,3.625
1764973329.0362222,0,0,28,3.500
1764973329.0402262,0,0,26,3.250
1764973329.044238,0,0,26,3.250
1764973329.048238,0,0,27,3.375
1764973329.05223,0,0,29,3.625
1764973329.0562208,0,0,28,3.500
1764973329.0602267,0,0,25,3.125
1764973329.064237,0,0,26,3.250
1764973329.0682333,0,0,28,3.500
1764973329.0722373,0,0,29,3.625
1764973329.076235,0,0,29,3.625
1764973329.0802414,0,0,25,3.125
1764973329.0842311,0,0,26,3.250
1764973329.0882313,0,0,28,3.500
1764973329.092236,0,0,28,3.500
1764973329.096235,0,0,28,3.500
1764973329.1002438,0,0,25,3.125
1764973329.1042304,0,0,26,3.250
1764973329.108232,0,0,27,3.375
1764973329.1122353,0,0,29,3.625
1764973329.1162355,0,0,28,3.500
1764973329.1202748,0,0,25,3.125
1764973329.1242325,0,0,26,3.250
1764973329.1282322,0,0,27,3.375
1764973329.1322355,0,0,28,3.500
1764973329.1362338,0,0,28,3.500
1764973329.1402419,0,0,26,3.250
1764973329.1442342,0,0,26,3.250
1764973329.1482322,0,0,28,3.500
1764973329.1522324,0,0,29,3.625
1764973329.1562338,0,0,29,3.625
1764973329.1602411,0,0,26,3.250
1764973329.1642342,0,0,26,3.250
1764973329.168231,0,0,28,3.500
1764973329.1722355,0,0,29,3.625
1764973329.176231,0,0,28,3.500
1764973329.180239,0,0,25,3.125
1764973329.1842332,0,0,26,3.250
1764973329.1882317,0,0,27,3.375
1764973329.1922348,0,0,29,3.625
1764973329.1962306,0,0,29,3.625
1764973329.2002347,0,0,25,3.125
1764973329.2042296,0,0,26,3.250
1764973329.2082152,0,0,27,3.375
1764973329.212232,0,0,28,3.500
1764973329.2162318,0,0,29,3.625
1764973329.2204406,0,0,26,3.250
1764973329.224272,0,0,26,3.250
1764973329.2282171,0,0,27,3.375
1764973329.232241,0,0,28,3.500
1764973329.2362337,0,0,29,3.625
1764973329.2402332,0,0,26,3.250
1764973329.2442183,0,0,26,3.250
1764973329.2482176,0,0,28,3.500
1764973329.2522192,0,0,29,3.625
1764973329.256217,0,0,29,3.625
1764973329.260236,0,0,26,3.250
1764973329.264236,0,0,26,3.250
1764973329.268233,0,0,27,3.375
1764973329.272237,0,0,29,3.625
1764973329.2762306,0,0,29,3.625
1764973329.2802358,0,0,26,3.250
1764973329.2842305,0,0,26,3.250
1764973329.288233,0,0,28,3.500
1764973329.2922301,0,0,28,3.500
1764973329.2962153,0,0,29,3.625
1764973329.300227,0,0,26,3.250
1764973329.3043222,0,0,26,3.250
1764973329.3082345,0,0,28,3.500
1764973329.312225,0,0,29,3.625
1764973329.3162165,0,0,29,3.625
1764973329.3202233,0,0,26,3.250
1764973329.324266,0,0,26,3.250
1764973329.3282351,0,0,27,3.375
1764973329.332226,0,0,28,3.500
1764973329.3362167,0,0,29,3.625
1764973329.3402233,0,0,26,3.250
1764973329.3442314,0,0,26,3.250
1764973329.348229,0,0,27,3.375
1764973329.3522358,0,0,28,3.500
1764973329.356233,0,0,29,3.625
1764973329.3602371,0,0,26,3.250
1764973329.3642275,0,0,26,3.250
1764973329.3682284,0,0,27,3.375
1764973329.3722339,0,0,28,3.500
1764973329.3762274,0,0,29,3.625
1764973329.3802366,0,0,26,3.250
1764973329.3842263,0,0,26,3.250
1764973329.3882265,0,0,27,3.375
1764973329.3922286,0,0,28,3.500
1764973329.3962302,0,0,29,3.625
1764973329.4002326,0,0,26,3.250
1764973329.4042282,0,0,27,3.375
1764973329.4082253,0,0,29,3.625
1764973329.412231,0,0,29,3.625
1764973329.416231,0,0,26,3.250
1764973329.420436,0,0,26,3.250
1764973329.4242635,0,0,27,3.375
1764973329.4282146,0,0,28,3.500
1764973329.4322362,0,0,29,3.625
1764973329.4362314,0,0,26,3.250
1764973329.440233,0,0,26,3.250
1764973329.4442132,0,0,26,3.250
1764973329.4482121,0,0,28,3.500
1764973329.4522147,0,0,30,3.750
1764973329.4562151,0,0,26,3.250
1764973329.46022,0,0,26,3.250
1764973329.4642184,0,0,27,3.375
1764973329.4682152,0,0,28,3.500
1764973329.4722352,0,0,29,3.625
1764973329.4762292,0,0,26,3.250
1764973329.4802363,0,0,26,3.250
1764973329.484229,0,0,27,3.375
1764973329.4882288,0,0,28,3.500
1764973329.4922314,0,0,29,3.625
1764973329.496231,0,0,27,3.375
1764973329.500258,0,0,26,3.250
1764973329.504224,0,0,27,3.375
1764973329.5082138,0,0,28,3.500
1764973329.51223,0,0,29,3.625
1764973329.5162277,0,0,27,3.375
1764973329.5202289,0,0,26,3.250
1764973329.5242138,0,0,27,3.375
1764973329.5282288,0,0,28,3.500
1764973329.532233,0,0,29,3.625
1764973329.5362256,0,0,27,3.375
1764973329.5402324,0,0,26,3.250
1764973329.5442293,0,0,26,3.250
1764973329.5482292,0,0,28,3.500
1764973329.5522285,0,0,29,3.625
1764973329.556225,0,0,26,3.250
1764973329.5602329,0,0,26,3.250
1764973329.5642257,0,0,26,3.250
1764973329.5682256,0,0,28,3.500
1764973329.5722325,0,0,29,3.625
1764973329.5762281,0,0,27,3.375
1764973329.58023,0,0,25,3.125
1764973329.5842223,0,0,26,3.250
1764973329.5882235,0,0,28,3.500
1764973329.5922282,0,0,29,3.625
1764973329.5962265,0,0,27,3.375
1764973329.60023,0,0,26,3.250
1764973329.6042225,0,0,26,3.250
1764973329.6082275,0,0,28,3.500
1764973329.6122305,0,0,29,3.625
1764973329.6162257,0,0,27,3.375
1764973329.6204317,0,0,26,3.250
1764973329.6242263,0,0,26,3.250
1764973329.6282237,0,0,28,3.500
1764973329.6322358,0,0,29,3.625
1764973329.6362286,0,0,26,3.250
1764973329.6402311,0,0,26,3.250
1764973329.644777,0,0,26,3.250
1764973329.6483302,0,0,28,3.500
1764973329.6522386,0,0,29,3.625
1764973329.6562173,0,0,27,3.375
1764973329.6602168,0,0,26,3.250
1764973329.6642177,0,0,26,3.250
1764973329.6682105,0,0,28,3.500
1764973329.672223,0,0,29,3.625
1764973329.6762223,0,0,27,3.375
1764973329.6802208,0,0,26,3.250
1764973329.684212,0,0,26,3.250
1764973329.6882102,0,0,28,3.500
1764973329.6922271,0,0,29,3.625
1764973329.696227,0,0,27,3.375
1764973329.7002292,0,0,26,3.250
1764973329.704212,0,0,26,3.250
1764973329.708209,0,0,28,3.500
1764973329.7122343,0,0,29,3.625
1764973329.7162406,0,0,27,3.375
1764973329.7202344,0,0,25,3.125
1764973329.7242272,0,0,26,3.250
1764973329.728264,0,0,28,3.500
1764973329.7322323,0,0,29,3.625
1764973329.7362223,0,0,27,3.375
1764973329.7402337,0,0,26,3.250
1764973329.744227,0,0,26,3.250
1764973329.7482257,0,0,28,3.500
1764973329.7522259,0,0,29,3.625
1764973329.7562225,0,0,28,3.500
1764973329.7602322,0,0,25,3.125
1764973329.764225,0,0,26,3.250
1764973329.7682242,0,0,28,3.500
1764973329.7722273,0,0,29,3.625
1764973329.7762222,0,0,28,3.500
1764973329.7802289,0,0,25,3.125
1764973329.784224,0,0,26,3.250
1764973329.7882247,0,0,28,3.500
1764973329.7922318,0,0,29,3.625
1764973329.7962248,0,0,27,3.375
1764973329.8002274,0,0,26,3.250
1764973329.804225,0,0,26,3.250
1764973329.8082263,0,0,28,3.500
1764973329.8122282,0,0,29,3.625
1764973329.816222,0,0,28,3.500
1764973329.820428,0,0,25,3.125
1764973329.8242288,0,0,26,3.250
1764973329.8282444,0,0,28,3.500
1764973329.8322313,0,0,29,3.625
1764973329.8362238,0,0,28,3.500
1764973329.840226,0,0,26,3.250
1764973329.8442066,0,0,26,3.250
1764973329.848209,0,0,28,3.500
1764973329.8522327,0,0,29,3.625
1764973329.856229,0,0,28,3.500
1764973329.8602324,0,0,26,3.250
1764973329.8642242,0,0,26,3.250
1764973329.8682263,0,0,28,3.500
1764973329.872251,0,0,29,3.625
1764973329.8763676,0,0,28,3.500
1764973329.8802314,0,0,26,3.250
1764973329.8842084,0,0,26,3.250
1764973329.8882113,0,0,28,3.500
1764973329.8922281,0,0,29,3.625
1764973329.896227,0,0,29,3.625
1764973329.90022,0,0,26,3.250
1764973329.9042094,0,0,26,3.250
1764973329.9082062,0,0,28,3.500
1764973329.9122303,0,0,29,3.625
1764973329.9162235,0,0,28,3.500
1764973329.9202297,0,0,25,3.125
1764973329.9242213,0,0,26,3.250
1764973329.928219,0,0,28,3.500
1764973329.932242,0,0,29,3.625
1764973329.9362257,0,0,29,3.625
1764973329.940229,0,0,25,3.125
1764973329.9442182,0,0,26,3.250
1764973329.9482188,0,0,28,3.500
1764973329.9522128,0,0,28,3.500
1764973329.9562063,0,0,29,3.625
1764973329.9602163,0,0,26,3.250
1764973329.964222,0,0,27,3.375
1764973329.9682198,0,0,27,3.375
1764973329.9722097,0,0,29,3.625
1764973329.9762063,0,0,28,3.500
1764973329.9802163,0,0,25,3.125
1764973329.9842238,0,0,26,3.250
1764973329.9882205,0,0,28,3.500
1764973329.9922206,0,0,28,3.500
1764973329.9962218,0,0,29,3.625
1764973330.0002284,0,0,26,3.250
1764973330.0042224,0,0,26,3.250
1764973330.0082192,0,0,28,3.500
1764973330.0122242,0,0,29,3.625
1764973330.0162172,0,0,29,3.625
1764973330.0251465,0,0,27,3.375
1764973330.0283303,0,0,28,3.500
1764973330.0322192,0,0,28,3.500
1764973330.036206,0,0,26,3.250
1764973330.040219,0,0,26,3.250
1764973330.0442247,0,0,27,3.375
1764973330.0482235,0,0,28,3.500
1764973330.0522115,0,0,29,3.625
1764973330.056206,0,0,25,3.125
1764973330.0602148,0,0,26,3.250
1764973330.0642297,0,0,27,3.375
1764973330.068224,0,0,28,3.500
1764973330.0722256,0,0,29,3.625
1764973330.0762198,0,0,26,3.250
1764973330.0802274,0,0,26,3.250
1764973330.0842211,0,0,27,3.375
1764973330.0882232,0,0,29,3.625
1764973330.0922263,0,0,29,3.625
1764973330.0962317,0,0,26,3.250
1764973330.1002245,0,0,26,3.250
1764973330.1042094,0,0,27,3.375
1764973330.108207,0,0,29,3.625
1764973330.1122236,0,0,29,3.625
1764973330.1162217,0,0,25,3.125
1764973330.1202211,0,0,26,3.250
1764973330.1242018,0,0,27,3.375
1764973330.1282058,0,0,28,3.500
1764973330.1322384,0,0,29,3.625
1764973330.1362247,0,0,26,3.250
1764973330.140224,0,0,26,3.250
1764973330.1442187,0,0,27,3.375
1764973330.1482186,0,0,28,3.500
1764973330.1522212,0,0,29,3.625
1764973330.1562192,0,0,26,3.250
1764973330.160222,0,0,26,3.250
1764973330.164215,0,0,27,3.375
1764973330.1682193,0,0,29,3.625
1764973330.172222,0,0,29,3.625
1764973330.1762192,0,0,26,3.250
1764973330.1802237,0,0,26,3.250
1764973330.1842194,0,0,26,3.250
1764973330.1882174,0,0,29,3.625
1764973330.1922207,0,0,29,3.625
1764973330.1962187,0,0,26,3.250
1764973330.2002237,0,0,26,3.250
1764973330.2042007,0,0,27,3.375
1764973330.2081995,0,0,28,3.500
1764973330.2122214,0,0,29,3.625
1764973330.2162192,0,0,26,3.250
1764973330.220225,0,0,25,3.125
1764973330.2244282,0,0,26,3.250
1764973330.2282484,0,0,28,3.500
1764973330.2322457,0,0,29,3.625
1764973330.2362068,0,0,26,3.250
1764973330.240217,0,0,25,3.125
1764973330.244221,0,0,26,3.250
1764973330.2482178,0,0,28,3.500
1764973330.252209,0,0,28,3.500
1764973330.2562046,0,0,26,3.250
1764973330.2602155,0,0,26,3.250
1764973330.2642252,0,0,27,3.375
1764973330.2682168,0,0,28,3.500
1764973330.272221,0,0,29,3.625
1764973330.2762222,0,0,27,3.375
1764973330.2804613,0,0,26,3.250
1764973330.2842064,0,0,27,3.375
1764973330.2882028,0,0,28,3.500
1764973330.292207,0,0,29,3.625
1764973330.296203,0,0,27,3.375
1764973330.3002152,0,0,26,3.250
1764973330.3042045,0,0,27,3.375
1764973330.3082047,0,0,28,3.500
1764973330.3122067,0,0,29,3.625
1764973330.3162,0,0,26,3.250
1764973330.3202162,0,0,26,3.250
1764973330.3242185,0,0,27,3.375
1764973330.3282173,0,0,28,3.500
1764973330.332221,0,0,29,3.625
1764973330.3362215,0,0,27,3.375
1764973330.3402207,0,0,25,3.125
1764973330.3442163,0,0,27,3.375
1764973330.3482172,0,0,29,3.625
1764973330.352223,0,0,29,3.625
1764973330.3562148,0,0,27,3.375
1764973330.3602216,0,0,26,3.250
1764973330.364213,0,0,26,3.250
1764973330.368219,0,0,28,3.500
1764973330.3722205,0,0,29,3.625
1764973330.3762138,0,0,27,3.375
1764973330.3802207,0,0,26,3.250
1764973330.3842177,0,0,26,3.250
1764973330.3882174,0,0,28,3.500
1764973330.3922184,0,0,30,3.750
1764973330.3962128,0,0,27,3.375
1764973330.400222,0,0,25,3.125
1764973330.404215,0,0,26,3.250
1764973330.4082153,0,0,28,3.500
1764973330.4122205,0,0,29,3.625
1764973330.4162169,0,0,27,3.375
1764973330.4202132,0,0,26,3.250
1764973330.4244225,0,0,27,3.375
1764973330.4282336,0,0,28,3.500
1764973330.4322135,0,0,29,3.625
1764973330.4362383,0,0,27,3.375
1764973330.4402072,0,0,26,3.250
1764973330.4442153,0,0,26,3.250
1764973330.448216,0,0,28,3.500
1764973330.4522092,0,0,29,3.625
1764973330.4561987,0,0,27,3.375
1764973330.4602125,0,0,26,3.250
1764973330.4642198,0,0,26,3.250
1764973330.468215,0,0,28,3.500
1764973330.4722192,0,0,29,3.625
1764973330.4762208,0,0,27,3.375
1764973330.4804647,0,0,26,3.250
1764973330.4842036,0,0,26,3.250
1764973330.4881992,0,0,28,3.500
1764973330.4922225,0,0,29,3.625
1764973330.4962184,0,0,27,3.375
1764973330.5002189,0,0,26,3.250
1764973330.504198,0,0,26,3.250
1764973330.5081975,0,0,28,3.500
1764973330.5122187,0,0,29,3.625
1764973330.5162168,0,0,28,3.500
1764973330.520224,0,0,25,3.125
1764973330.5242147,0,0,26,3.250
1764973330.528213,0,0,28,3.500
1764973330.5322165,0,0,29,3.625
1764973330.5362306,0,0,28,3.500
1764973330.5402238,0,0,26,3.250
1764973330.5442164,0,0,26,3.250
1764973330.5482118,0,0,28,3.500
1764973330.5522137,0,0,29,3.625
1764973330.5562127,0,0,28,3.500
1764973330.5602205,0,0,26,3.250
1764973330.5642135,0,0,26,3.250
1764973330.5682127,0,0,28,3.500
1764973330.5722156,0,0,29,3.625
1764973330.57621,0,0,28,3.500
1764973330.58022,0,0,25,3.125
1764973330.584215,0,0,26,3.250
1764973330.588214,0,0,28,3.500
1764973330.5922127,0,0,28,3.500
1764973330.5962126,0,0,28,3.500
1764973330.6002207,0,0,26,3.250
1764973330.6042137,0,0,26,3.250
1764973330.6082122,0,0,28,3.500
1764973330.612218,0,0,28,3.500
1764973330.6162124,0,0,28,3.500
1764973330.6202183,0,0,26,3.250
1764973330.6244185,0,0,28,3.500
1764973330.628228,0,0,28,3.500
1764973330.6322105,0,0,29,3.625
1764973330.6362324,0,0,28,3.500
1764973330.6402056,0,0,26,3.250
1764973330.6447675,0,0,28,3.500
1764973330.6483216,0,0,29,3.625
1764973330.6522155,0,0,28,3.500
1764973330.6561966,0,0,26,3.250
1764973330.660199,0,0,26,3.250
1764973330.6642063,0,0,28,3.500
1764973330.6681995,0,0,29,3.625
1764973330.6722038,0,0,28,3.500
1764973330.676195,0,0,26,3.250
1764973330.6802096,0,0,26,3.250
1764973330.6844618,0,0,28,3.500
1764973330.6882215,0,0,29,3.625
1764973330.6922102,0,0,29,3.625
1764973330.6961994,0,0,26,3.250
1764973330.700197,0,0,26,3.250
1764973330.7042017,0,0,27,3.375
1764973330.708202,0,0,28,3.500
1764973330.7122033,0,0,28,3.500
1764973330.7161999,0,0,25,3.125
1764973330.7201955,0,0,26,3.250
1764973330.7241964,0,0,27,3.375
1764973330.728196,0,0,29,3.625
1764973330.7322161,0,0,28,3.500
1764973330.7362497,0,0,25,3.125
1764973330.740216,0,0,26,3.250
1764973330.7442107,0,0,27,3.375
1764973330.7482111,0,0,29,3.625
1764973330.752219,0,0,29,3.625
1764973330.7562158,0,0,25,3.125
1764973330.760218,0,0,26,3.250
1764973330.7642097,0,0,27,3.375
1764973330.7682104,0,0,28,3.500
1764973330.7722151,0,0,28,3.500
1764973330.7762115,0,0,26,3.250
1764973330.7802188,0,0,26,3.250
1764973330.784211,0,0,28,3.500
1764973330.7882106,0,0,28,3.500
1764973330.792213,0,0,28,3.500
1764973330.7962165,0,0,25,3.125
1764973330.8002212,0,0,26,3.250
1764973330.8042128,0,0,28,3.500
1764973330.8082073,0,0,28,3.500
1764973330.8122132,0,0,29,3.625
1764973330.8162136,0,0,26,3.250
1764973330.8202186,0,0,26,3.250
1764973330.8244152,0,0,27,3.375
1764973330.8282235,0,0,28,3.500
1764973330.8322046,0,0,28,3.500
1764973330.8361926,0,0,25,3.125
1764973330.8402069,0,0,26,3.250
1764973330.844212,0,0,27,3.375
1764973330.8482146,0,0,28,3.500
1764973330.8522012,0,0,28,3.500
1764973330.8561926,0,0,25,3.125
1764973330.8602111,0,0,26,3.250
1764973330.8642187,0,0,27,3.375
1764973330.8682132,0,0,29,3.625
1764973330.8722143,0,0,29,3.625
1764973330.8762112,0,0,26,3.250
1764973330.8802211,0,0,26,3.250
1764973330.8844342,0,0,27,3.375
1764973330.888221,0,0,28,3.500
1764973330.8922029,0,0,28,3.500
1764973330.8961957,0,0,25,3.125
1764973330.9002037,0,0,26,3.250
1764973330.9042146,0,0,27,3.375
1764973330.9082131,0,0,29,3.625
1764973330.912204,0,0,29,3.625
1764973330.916194,0,0,26,3.250
1764973330.9201994,0,0,26,3.250
1764973330.924212,0,0,27,3.375
1764973330.928213,0,0,29,3.625
1764973330.9322143,0,0,29,3.625
1764973330.9362078,0,0,26,3.250
1764973330.9402285,0,0,26,3.250
1764973330.9442093,0,0,27,3.375
1764973330.94821,0,0,29,3.625
1764973330.9522002,0,0,29,3.625
1764973330.95619,0,0,26,3.250
1764973330.9601998,0,0,25,3.125
1764973330.9642076,0,0,27,3.375
1764973330.9682093,0,0,29,3.625
1764973330.9722123,0,0,29,3.625
1764973330.9762108,0,0,26,3.250
1764973330.9802108,0,0,26,3.250
1764973330.984206,0,0,27,3.375
1764973330.9882097,0,0,28,3.500
1764973330.9921994,0,0,29,3.625
1764973330.9961913,0,0,26,3.250
1764973331.0002012,0,0,26,3.250
1764973331.0042083,0,0,27,3.375
1764973331.0082064,0,0,29,3.625
1764973331.0122166,0,0,29,3.625
1764973331.0162084,0,0,26,3.250
1764973331.0202134,0,0,26,3.250
1764973331.0290523,0,0,29,3.625
1764973331.032325,0,0,28,3.500
1764973331.0362175,0,0,26,3.250
1764973331.0402498,0,0,26,3.250
1764973331.0441923,0,0,27,3.375
1764973331.0481908,0,0,29,3.625
1764973331.0522103,0,0,29,3.625
1764973331.0562108,0,0,26,3.250
1764973331.060213,0,0,26,3.250
1764973331.0641916,0,0,27,3.375
1764973331.068191,0,0,28,3.500
1764973331.0722156,0,0,29,3.625
1764973331.076213,0,0,26,3.250
1764973331.0802162,0,0,25,3.125
1764973331.0842097,0,0,27,3.375
1764973331.0882204,0,0,28,3.500
1764973331.0922034,0,0,29,3.625
1764973331.096196,0,0,26,3.250
1764973331.1002085,0,0,26,3.250
1764973331.1042135,0,0,26,3.250
1764973331.1082065,0,0,29,3.625
1764973331.1121955,0,0,29,3.625
1764973331.1161892,0,0,26,3.250
1764973331.1202047,0,0,26,3.250
1764973331.1242127,0,0,26,3.250
1764973331.128212,0,0,28,3.500
1764973331.1322126,0,0,29,3.625
1764973331.136207,0,0,27,3.375
1764973331.1402297,0,0,25,3.125
1764973331.144212,0,0,26,3.250
1764973331.1482105,0,0,28,3.500
1764973331.1522102,0,0,29,3.625
1764973331.1562057,0,0,27,3.375
1764973331.160217,0,0,26,3.250
1764973331.1642098,0,0,26,3.250
1764973331.1682081,0,0,28,3.500
1764973331.1722105,0,0,29,3.625
1764973331.1762066,0,0,27,3.375
1764973331.1802082,0,0,26,3.250
1764973331.1842086,0,0,26,3.250
1764973331.1882088,0,0,28,3.500
1764973331.1922119,0,0,29,3.625
1764973331.1962066,0,0,27,3.375
1764973331.200203,0,0,26,3.250
1764973331.2041924,0,0,26,3.250
1764973331.2081926,0,0,29,3.625
1764973331.212209,0,0,29,3.625
1764973331.2162073,0,0,27,3.375
1764973331.2202067,0,0,25,3.125
1764973331.2242053,0,0,26,3.250
1764973331.2284167,0,0,28,3.500
1764973331.232221,0,0,29,3.625
1764973331.236195,0,0,27,3.375
1764973331.2402015,0,0,25,3.125
1764973331.2442436,0,0,27,3.375
1764973331.2482097,0,0,28,3.500
1764973331.2522063,0,0,29,3.625
1764973331.256192,0,0,27,3.375
1764973331.2601986,0,0,25,3.125
1764973331.2642093,0,0,28,3.500
1764973331.2682087,0,0,29,3.625
1764973331.272209,0,0,28,3.500
1764973331.2762058,0,0,25,3.125
1764973331.28021,0,0,27,3.375
1764973331.2842023,0,0,28,3.500
1764973331.288219,0,0,29,3.625
1764973331.2922037,0,0,28,3.500
1764973331.296194,0,0,25,3.125
1764973331.3002017,0,0,26,3.250
1764973331.3042064,0,0,28,3.500
1764973331.308203,0,0,29,3.625
1764973331.3121974,0,0,28,3.500
1764973331.3161888,0,0,26,3.250
1764973331.3202038,0,0,26,3.250
1764973331.324208,0,0,28,3.500
1764973331.328208,0,0,29,3.625
1764973331.332198,0,0,28,3.500
1764973331.336191,0,0,26,3.250
1764973331.3402035,0,0,26,3.250
1764973331.344246,0,0,28,3.500
1764973331.3482065,0,0,29,3.625
1764973331.3522093,0,0,28,3.500
1764973331.3562055,0,0,26,3.250
1764973331.3602133,0,0,26,3.250
1764973331.3642082,0,0,28,3.500
1764973331.3682032,0,0,28,3.500
1764973331.3722088,0,0,27,3.375
1764973331.376208,0,0,25,3.125
1764973331.3802142,0,0,26,3.250
1764973331.3842049,0,0,28,3.500
1764973331.388205,0,0,29,3.625
1764973331.3922062,0,0,28,3.500
1764973331.3962042,0,0,26,3.250
1764973331.4002135,0,0,26,3.250
1764973331.404207,0,0,28,3.500
1764973331.408208,0,0,29,3.625
1764973331.4122086,0,0,28,3.500
1764973331.416204,0,0,26,3.250
1764973331.420206,0,0,26,3.250
1764973331.4242082,0,0,28,3.500
1764973331.428416,0,0,28,3.500
1764973331.432215,0,0,28,3.500
1764973331.4361875,0,0,25,3.125
1764973331.4402015,0,0,26,3.250
1764973331.4442441,0,0,28,3.500
1764973331.4482079,0,0,29,3.625
1764973331.4521961,0,0,28,3.500
1764973331.4561877,0,0,25,3.125
1764973331.4601958,0,0,26,3.250
1764973331.4642105,0,0,28,3.500
1764973331.4682045,0,0,29,3.625
1764973331.4722106,0,0,28,3.500
1764973331.476202,0,0,25,3.125
1764973331.4802077,0,0,26,3.250
1764973331.484231,0,0,28,3.500
1764973331.4884784,0,0,29,3.625
1764973331.4921997,0,0,28,3.500
1764973331.4961846,0,0,25,3.125
1764973331.5001853,0,0,26,3.250
1764973331.5041842,0,0,28,3.500
1764973331.508185,0,0,29,3.625
1764973331.5121875,0,0,28,3.500
1764973331.516185,0,0,25,3.125
1764973331.520195,0,0,26,3.250
1764973331.524205,0,0,27,3.375
1764973331.5282063,0,0,28,3.500
1764973331.53221,0,0,28,3.500
1764973331.536205,0,0,25,3.125
1764973331.5402057,0,0,26,3.250
1764973331.5442026,0,0,28,3.500
1764973331.5482187,0,0,29,3.625
1764973331.5522046,0,0,29,3.625
1764973331.556202,0,0,25,3.125
1764973331.560207,0,0,26,3.250
1764973331.5641997,0,0,28,3.500
1764973331.5681992,0,0,28,3.500
1764973331.5722067,0,0,28,3.500
1764973331.5762033,0,0,26,3.250
1764973331.580203,0,0,26,3.250
1764973331.5842028,0,0,28,3.500
1764973331.5881996,0,0,29,3.625
1764973331.5922065,0,0,28,3.500
1764973331.596204,0,0,26,3.250
1764973331.6002066,0,0,26,3.250
1764973331.604199,0,0,27,3.375
1764973331.6081998,0,0,29,3.625
1764973331.6122043,0,0,29,3.625
1764973331.6162016,0,0,26,3.250
1764973331.6202028,0,0,26,3.250
1764973331.6242025,0,0,28,3.500
1764973331.6284077,0,0,29,3.625
1764973331.6322114,0,0,29,3.625
1764973331.6361895,0,0,26,3.250
1764973331.6402001,0,0,27,3.375
1764973331.644809,0,0,27,3.375
1764973331.6483498,0,0,28,3.500
1764973331.6522028,0,0,29,3.625
1764973331.6561882,0,0,25,3.125
1764973331.6601896,0,0,26,3.250
1764973331.6641955,0,0,27,3.375
1764973331.6681838,0,0,28,3.500
1764973331.6721869,0,0,29,3.625
1764973331.6761837,0,0,25,3.125
1764973331.680198,0,0,26,3.250
1764973331.6841993,0,0,27,3.375
1764973331.688201,0,0,28,3.500
1764973331.6924794,0,0,29,3.625
1764973331.6962056,0,0,26,3.250
1764973331.7002041,0,0,26,3.250
1764973331.7043247,0,0,27,3.375
1764973331.7081904,0,0,28,3.500
1764973331.7122076,0,0,29,3.625
1764973331.716197,0,0,26,3.250
1764973331.720195,0,0,26,3.250
1764973331.7241833,0,0,27,3.375
1764973331.7281854,0,0,28,3.500
1764973331.7322028,0,0,29,3.625
1764973331.7361984,0,0,26,3.250
1764973331.740199,0,0,26,3.250
1764973331.7442005,0,0,27,3.375
1764973331.7482393,0,0,28,3.500
1764973331.752207,0,0,29,3.625
1764973331.7561998,0,0,26,3.250
1764973331.7602048,0,0,26,3.250
1764973331.7642124,0,0,27,3.375
1764973331.768202,0,0,29,3.625
1764973331.7722037,0,0,29,3.625
1764973331.7761989,0,0,26,3.250
1764973331.7802048,0,0,26,3.250
1764973331.7841992,0,0,27,3.375
1764973331.7882006,0,0,28,3.500
1764973331.7922082,0,0,29,3.625
1764973331.796208,0,0,26,3.250
1764973331.8002064,0,0,26,3.250
1764973331.8041978,0,0,27,3.375
1764973331.8082025,0,0,28,3.500
1764973331.812204,0,0,29,3.625
1764973331.8162007,0,0,26,3.250
1764973331.8201973,0,0,26,3.250
1764973331.8241973,0,0,26,3.250
1764973331.8284092,0,0,28,3.500
1764973331.8322144,0,0,29,3.625
1764973331.8361862,0,0,26,3.250
1764973331.8401952,0,0,26,3.250
1764973331.8442004,0,0,27,3.375
1764973331.848238,0,0,28,3.500
1764973331.8521924,0,0,29,3.625
1764973331.8561862,0,0,26,3.250
1764973331.8602011,0,0,26,3.250
1764973331.8642018,0,0,27,3.375
1764973331.8681977,0,0,28,3.500
1764973331.8722007,0,0,29,3.625
1764973331.876199,0,0,26,3.250
1764973331.880205,0,0,26,3.250
1764973331.8841975,0,0,28,3.500
1764973331.8882008,0,0,29,3.625
1764973331.8924758,0,0,27,3.375
1764973331.8962061,0,0,25,3.125
1764973331.9002028,0,0,27,3.375
1764973331.9041834,0,0,28,3.500
1764973331.9081812,0,0,30,3.750
1764973331.9122005,0,0,26,3.250
1764973331.9161978,0,0,26,3.250
1764973331.9201994,0,0,26,3.250
1764973331.9241803,0,0,28,3.500
1764973331.9281797,0,0,29,3.625
1764973331.932199,0,0,27,3.375
1764973331.9361997,0,0,26,3.250
1764973331.9401999,0,0,27,3.375
1764973331.944198,0,0,28,3.500
1764973331.9482102,0,0,29,3.625
1764973331.9521875,0,0,27,3.375
1764973331.9561803,0,0,26,3.250
1764973331.9601953,0,0,26,3.250
1764973331.9641988,0,0,28,3.500
1764973331.968199,0,0,29,3.625
1764973331.9721994,0,0,27,3.375
1764973331.9761958,0,0,26,3.250
1764973331.9802022,0,0,26,3.250
1764973331.9841976,0,0,28,3.500
1764973331.988197,0,0,29,3.625
1764973331.9921973,0,0,27,3.375
1764973331.9961946,0,0,26,3.250
1764973332.0002003,0,0,26,3.250
1764973332.0041978,0,0,28,3.500
1764973332.008199,0,0,29,3.625
1764973332.012193,0,0,27,3.375
1764973332.0161808,0,0,26,3.250
1764973332.0201876,0,0,26,3.250
1764973332.024201,0,0,29,3.625
1764973332.0331385,0,0,27,3.375
1764973332.0363052,0,0,26,3.250
1764973332.0402033,0,0,26,3.250
1764973332.0442271,0,0,28,3.500
1764973332.0481927,0,0,28,3.500
1764973332.0521884,0,0,27,3.375
1764973332.0561833,0,0,25,3.125
1764973332.0602014,0,0,26,3.250
1764973332.064192,0,0,28,3.500
1764973332.0681827,0,0,29,3.625
1764973332.0722065,0,0,27,3.375
1764973332.076197,0,0,26,3.250
1764973332.0801997,0,0,26,3.250
1764973332.084192,0,0,28,3.500
1764973332.088203,0,0,29,3.625
1764973332.0924766,0,0,27,3.375
1764973332.096202,0,0,25,3.125
1764973332.1001956,0,0,26,3.250
1764973332.1041782,0,0,28,3.500
1764973332.1081753,0,0,29,3.625
1764973332.1121998,0,0,27,3.375
1764973332.116197,0,0,26,3.250
1764973332.1201963,0,0,26,3.250
1764973332.124176,0,0,28,3.500
1764973332.1281788,0,0,29,3.625
1764973332.1322002,0,0,28,3.500
1764973332.1361995,0,0,25,3.125
1764973332.1402028,0,0,26,3.250
1764973332.1441936,0,0,28,3.500
1764973332.1481922,0,0,29,3.625
1764973332.1522143,0,0,27,3.375
1764973332.156197,0,0,26,3.250
1764973332.1602013,0,0,26,3.250
1764973332.164193,0,0,28,3.500
1764973332.168195,0,0,29,3.625
1764973332.172197,0,0,28,3.500
1764973332.176196,0,0,25,3.125
1764973332.1801999,0,0,26,3.250
1764973332.1841974,0,0,28,3.500
1764973332.1881926,0,0,29,3.625
1764973332.1921952,0,0,28,3.500
1764973332.1961956,0,0,25,3.125
1764973332.2001953,0,0,26,3.250
1764973332.204177,0,0,28,3.500
1764973332.208177,0,0,29,3.625
1764973332.2121942,0,0,28,3.500
1764973332.216193,0,0,26,3.250
1764973332.2202015,0,0,26,3.250
1764973332.2241952,0,0,28,3.500
1764973332.2281947,0,0,29,3.625
1764973332.2324162,0,0,28,3.500
1764973332.2362099,0,0,25,3.125
1764973332.2401965,0,0,26,3.250
1764973332.2441792,0,0,28,3.500
1764973332.248179,0,0,29,3.625
1764973332.2522311,0,0,28,3.500
1764973332.2561958,0,0,25,3.125
1764973332.2601967,0,0,26,3.250
1764973332.2641807,0,0,28,3.500
1764973332.2681782,0,0,28,3.500
1764973332.2721975,0,0,28,3.500
1764973332.2761917,0,0,26,3.250
1764973332.2801971,0,0,26,3.250
1764973332.2841935,0,0,28,3.500
1764973332.288197,0,0,29,3.625
1764973332.2924058,0,0,28,3.500
1764973332.2962086,0,0,25,3.125
1764973332.3001964,0,0,26,3.250
1764973332.3041794,0,0,28,3.500
1764973332.308176,0,0,29,3.625
1764973332.3122027,0,0,28,3.500
1764973332.3161933,0,0,26,3.250
1764973332.3201928,0,0,26,3.250
1764973332.324174,0,0,28,3.500
1764973332.3281782,0,0,28,3.500
1764973332.3321967,0,0,28,3.500
1764973332.336195,0,0,26,3.250
1764973332.3401966,0,0,26,3.250
1764973332.3441913,0,0,28,3.500
1764973332.348193,0,0,29,3.625
1764973332.352199,0,0,28,3.500
1764973332.3561797,0,0,25,3.125
1764973332.3601835,0,0,26,3.250
1764973332.3641925,0,0,28,3.500
1764973332.3681934,0,0,28,3.500
1764973332.372184,0,0,29,3.625
1764973332.376176,0,0,26,3.250
1764973332.380185,0,0,26,3.250
1764973332.384187,0,0,28,3.500
1764973332.3881872,0,0,28,3.500
1764973332.3921907,0,0,29,3.625
1764973332.396189,0,0,25,3.125
1764973332.4001966,0,0,26,3.250
1764973332.4041872,0,0,27,3.375
1764973332.4081872,0,0,28,3.500
1764973332.412194,0,0,29,3.625
1764973332.4161909,0,0,26,3.250
1764973332.4201906,0,0,26,3.250
1764973332.4241865,0,0,27,3.375
1764973332.4281843,0,0,29,3.625
1764973332.4324076,0,0,28,3.500
1764973332.436209,0,0,26,3.250
1764973332.4401956,0,0,26,3.250
1764973332.4441743,0,0,28,3.500
1764973332.4481752,0,0,28,3.500
1764973332.4521816,0,0,29,3.625
1764973332.4562135,0,0,25,3.125
1764973332.4601803,0,0,26,3.250
1764973332.4641771,0,0,27,3.375
1764973332.4681728,0,0,29,3.625
1764973332.4721954,0,0,29,3.625
1764973332.4761927,0,0,26,3.250
1764973332.480201,0,0,26,3.250
1764973332.4841926,0,0,28,3.500
1764973332.4881873,0,0,29,3.625
1764973332.492193,0,0,30,3.750
1764973332.4964101,0,0,26,3.250
1764973332.500197,0,0,28,3.500
1764973332.5041761,0,0,28,3.500
1764973332.508172,0,0,29,3.625
1764973332.5121887,0,0,26,3.250
1764973332.51619,0,0,27,3.375
1764973332.5201945,0,0,27,3.375
1764973332.524174,0,0,29,3.625
1764973332.528171,0,0,29,3.625
1764973332.532194,0,0,26,3.250
1764973332.5361927,0,0,26,3.250
1764973332.5401976,0,0,27,3.375
1764973332.544191,0,0,29,3.625
1764973332.5481904,0,0,29,3.625
1764973332.5521932,0,0,26,3.250
1764973332.5562043,0,0,26,3.250
1764973332.560196,0,0,27,3.375
1764973332.564192,0,0,29,3.625
1764973332.568192,0,0,29,3.625
1764973332.572196,0,0,26,3.250
1764973332.5761874,0,0,26,3.250
1764973332.5801876,0,0,27,3.375
1764973332.5841904,0,0,29,3.625
1764973332.588191,0,0,29,3.625
1764973332.5921917,0,0,26,3.250
1764973332.5961876,0,0,26,3.250
1764973332.6001952,0,0,27,3.375
1764973332.6041877,0,0,28,3.500
1764973332.60819,0,0,29,3.625
1764973332.6121943,0,0,26,3.250
1764973332.6161926,0,0,26,3.250
1764973332.620196,0,0,27,3.375
1764973332.6241882,0,0,28,3.500
1764973332.6281881,0,0,29,3.625
1764973332.6324081,0,0,26,3.250
1764973332.6362064,0,0,26,3.250
1764973332.640192,0,0,26,3.250
1764973332.6447744,0,0,28,3.500
1764973332.6482928,0,0,29,3.625
1764973332.6522028,0,0,27,3.375
1764973332.6562126,0,0,26,3.250
1764973332.660178,0,0,26,3.250
1764973332.664178,0,0,28,3.500
1764973332.6681707,0,0,29,3.625
1764973332.67218,0,0,27,3.375
1764973332.676174,0,0,26,3.250
1764973332.6801882,0,0,27,3.375
1764973332.6841888,0,0,29,3.625
1764973332.688187,0,0,29,3.625
1764973332.6921947,0,0,26,3.250
1764973332.6962004,0,0,26,3.250
1764973332.7001953,0,0,27,3.375
1764973332.7041724,0,0,28,3.500
1764973332.70817,0,0,29,3.625
1764973332.7121897,0,0,26,3.250
1764973332.7161887,0,0,26,3.250
1764973332.7201915,0,0,27,3.375
1764973332.7241719,0,0,28,3.500
1764973332.728169,0,0,29,3.625
1764973332.7321916,0,0,26,3.250
1764973332.7361867,0,0,25,3.125
1764973332.7401943,0,0,26,3.250
1764973332.7441876,0,0,28,3.500
1764973332.748183,0,0,29,3.625
1764973332.7521882,0,0,26,3.250
1764973332.756188,0,0,25,3.125
1764973332.760194,0,0,26,3.250
1764973332.7641864,0,0,28,3.500
1764973332.768188,0,0,29,3.625
1764973332.772188,0,0,27,3.375
1764973332.7761846,0,0,26,3.250
1764973332.7801955,0,0,26,3.250
1764973332.7841866,0,0,29,3.625
1764973332.7881863,0,0,29,3.625
1764973332.7921875,0,0,27,3.375
1764973332.7961884,0,0,26,3.250
1764973332.8001938,0,0,26,3.250
1764973332.804186,0,0,28,3.500
1764973332.8081875,0,0,29,3.625
1764973332.812187,0,0,27,3.375
1764973332.8161826,0,0,26,3.250
1764973332.820189,0,0,26,3.250
1764973332.824187,0,0,28,3.500
1764973332.828186,0,0,29,3.625
1764973332.8323963,0,0,27,3.375
1764973332.8361988,0,0,26,3.250
1764973332.8402016,0,0,26,3.250
1764973332.8441727,0,0,28,3.500
1764973332.8481712,0,0,28,3.500
1764973332.8521914,0,0,26,3.250
1764973332.8561857,0,0,25,3.125
1764973332.8602242,0,0,27,3.375
1764973332.8641756,0,0,28,3.500
1764973332.8681707,0,0,29,3.625
1764973332.8721945,0,0,27,3.375
1764973332.8761852,0,0,26,3.250
1764973332.880189,0,0,26,3.250
1764973332.8841813,0,0,28,3.500
1764973332.8881857,0,0,29,3.625
1764973332.8921888,0,0,26,3.250
1764973332.8961833,0,0,26,3.250
1764973332.9001877,0,0,26,3.250
1764973332.9041836,0,0,28,3.500
1764973332.908185,0,0,29,3.625
1764973332.912198,0,0,28,3.500
1764973332.9161708,0,0,25,3.125
1764973332.9201732,0,0,26,3.250
1764973332.924183,0,0,28,3.500
1764973332.9281867,0,0,29,3.625
1764973332.9321773,0,0,28,3.500
1764973332.9361672,0,0,26,3.250
1764973332.9401822,0,0,27,3.375
1764973332.9441862,0,0,28,3.500
1764973332.948183,0,0,29,3.625
1764973332.9521768,0,0,27,3.375
1764973332.9561691,0,0,26,3.250
1764973332.9601943,0,0,26,3.250
1764973332.9641852,0,0,28,3.500
1764973332.9681828,0,0,29,3.625
1764973332.9721892,0,0,27,3.375
1764973332.9761834,0,0,25,3.125
1764973332.9801908,0,0,26,3.250
1764973332.9841816,0,0,28,3.500
1764973332.9881809,0,0,29,3.625
1764973332.9921823,0,0,28,3.500
1764973332.9961834,0,0,26,3.250
1764973333.0001903,0,0,26,3.250
1764973333.004184,0,0,28,3.500
1764973333.0081818,0,0,29,3.625
1764973333.012186,0,0,28,3.500
1764973333.0161836,0,0,25,3.125
1764973333.020186,0,0,26,3.250
1764973333.0241833,0,0,28,3.500
1764973333.0281801,0,0,29,3.625
1764973333.625178,0,0,28,3.500
1764973333.6282818,0,0,28,3.500
1764973333.632228,0,0,25,3.125
1764973333.636208,0,0,25,3.125
1764973333.6402204,0,0,26,3.250
1764973333.6446111,0,0,28,3.500
1764973333.6484041,0,0,28,3.500
1764973333.6522377,0,0,26,3.250
1764973333.6562078,0,0,25,3.125
1764973333.6602283,0,0,26,3.250
1764973333.6642346,0,0,28,3.500
1764973333.6682189,0,0,29,3.625
1764973333.672238,0,0,27,3.375
1764973333.6762242,0,0,25,3.125
1764973333.6802294,0,0,26,3.250
1764973333.6842291,0,0,28,3.500
1764973333.6885343,0,0,28,3.500
1764973333.692226,0,0,28,3.500
1764973333.6962087,0,0,25,3.125
1764973333.7002962,0,0,26,3.250
1764973333.70417,0,0,28,3.500
1764973333.7083528,0,0,29,3.625
1764973333.7124143,0,0,28,3.500
1764973333.7162373,0,0,25,3.125
1764973333.7201843,0,0,26,3.250
1764973333.72418,0,0,28,3.500
1764973333.728181,0,0,29,3.625
1764973333.7321742,0,0,27,3.375
1764973333.7361665,0,0,25,3.125
1764973333.7401886,0,0,28,3.500
1764973333.7441826,0,0,29,3.625
1764973333.7481759,0,0,27,3.375
1764973333.752178,0,0,25,3.125
1764973333.7561746,0,0,26,3.250
1764973333.760184,0,0,28,3.500
1764973333.7641747,0,0,29,3.625
1764973333.768174,0,0,28,3.500
1764973333.7721763,0,0,26,3.250
1764973333.7761734,0,0,26,3.250
1764973333.7801735,0,0,28,3.500
1764973333.784175,0,0,29,3.625
1764973333.7881749,0,0,28,3.500
1764973333.7921789,0,0,25,3.125
1764973333.7961783,0,0,26,3.250
1764973333.8002179,0,0,28,3.500
1764973333.8041778,0,0,29,3.625
1764973333.8081756,0,0,28,3.500
1764973333.8121731,0,0,26,3.250
1764973333.8161707,0,0,26,3.250
1764973333.82018,0,0,28,3.500
1764973333.8242655,0,0,29,3.625
1764973333.8281882,0,0,28,3.500
1764973333.8321738,0,0,26,3.250
1764973333.8361633,0,0,26,3.250
1764973333.8401744,0,0,28,3.500
1764973333.8441763,0,0,29,3.625
1764973333.8481765,0,0,28,3.500
1764973333.852167,0,0,25,3.125
1764973333.8561583,0,0,26,3.250
1764973333.8601751,0,0,28,3.500
1764973333.8641856,0,0,28,3.500
1764973333.8681765,0,0,28,3.500
1764973333.872197,0,0,26,3.250
1764973333.8761818,0,0,26,3.250
1764973333.8801851,0,0,28,3.500
1764973333.8841653,0,0,29,3.625
1764973333.8881638,0,0,28,3.500
1764973333.8921745,0,0,25,3.125
1764973333.8961732,0,0,25,3.125
1764973333.9002142,0,0,28,3.500
1764973333.9041626,0,0,29,3.625
1764973333.9081616,0,0,28,3.500
1764973333.9121788,0,0,26,3.250
1764973333.9161685,0,0,26,3.250
1764973333.9201758,0,0,28,3.500
1764973333.9241734,0,0,28,3.500
1764973333.9281747,0,0,28,3.500
1764973333.932177,0,0,26,3.250
1764973333.936169,0,0,26,3.250
1764973333.940174,0,0,28,3.500
1764973333.9441762,0,0,28,3.500
1764973333.9481738,0,0,28,3.500
1764973333.9521668,0,0,25,3.125
1764973333.9561586,0,0,26,3.250
1764973333.960164,0,0,28,3.500
1764973333.9641724,0,0,28,3.500
1764973333.968173,0,0,28,3.500
1764973333.9721758,0,0,26,3.250
1764973333.9761724,0,0,26,3.250
1764973333.9801702,0,0,27,3.375
1764973333.984171,0,0,29,3.625
1764973333.9881735,0,0,29,3.625
1764973333.9921741,0,0,26,3.250
1764973333.9961703,0,0,26,3.250
1764973334.000174,0,0,27,3.375
1764973334.0041716,0,0,29,3.625
1764973334.0081735,0,0,28,3.500
1764973334.0121763,0,0,25,3.125
1764973334.016169,0,0,25,3.125
1764973334.0201755,0,0,28,3.500
1764973334.0242527,0,0,29,3.625
1764973334.0281856,0,0,29,3.625
1764973334.0321681,0,0,25,3.125
1764973334.0361593,0,0,26,3.250
1764973334.040169,0,0,28,3.500
1764973334.0441718,0,0,29,3.625
1764973334.0481691,0,0,29,3.625
1764973334.0521686,0,0,25,3.125
1764973334.056161,0,0,26,3.250
1764973334.0601737,0,0,26,3.250
1764973334.0641763,0,0,28,3.500
1764973334.0681722,0,0,28,3.500
1764973334.072172,0,0,26,3.250
1764973334.0761757,0,0,26,3.250
1764973334.0801868,0,0,27,3.375
1764973334.0841618,0,0,28,3.500
1764973334.088159,0,0,29,3.625
1764973334.0921721,0,0,26,3.250
1764973334.0961714,0,0,26,3.250
1764973334.1001697,0,0,27,3.375
1764973334.1041753,0,0,28,3.500
1764973334.1081564,0,0,29,3.625
1764973334.1121755,0,0,26,3.250
1764973334.1161697,0,0,26,3.250
1764973334.1201758,0,0,27,3.375
1764973334.1241713,0,0,29,3.625
1764973334.1281693,0,0,29,3.625
1764973334.1321692,0,0,26,3.250
1764973334.1361644,0,0,26,3.250
1764973334.1401749,0,0,27,3.375
1764973334.1441722,0,0,28,3.500
1764973334.1481721,0,0,29,3.625
1764973334.1521683,0,0,26,3.250
1764973334.1561654,0,0,26,3.250
1764973334.160176,0,0,27,3.375
1764973334.1641715,0,0,28,3.500
1764973334.1681707,0,0,29,3.625
1764973334.1721683,0,0,26,3.250
1764973334.1761656,0,0,25,3.125
1764973334.1801715,0,0,27,3.375
1764973334.1841705,0,0,28,3.500
1764973334.1881692,0,0,29,3.625
1764973334.1921704,0,0,26,3.250
1764973334.1961653,0,0,26,3.250
1764973334.2001712,0,0,27,3.375
1764973334.2041674,0,0,29,3.625
1764973334.20816,0,0,29,3.625
1764973334.2121708,0,0,26,3.250
1764973334.2161639,0,0,26,3.250
1764973334.2201703,0,0,27,3.375
1764973334.224251,0,0,29,3.625
1764973334.2281852,0,0,29,3.625
1764973334.2321663,0,0,26,3.250
1764973334.2361524,0,0,26,3.250
1764973334.2401628,0,0,27,3.375
1764973334.2441566,0,0,28,3.500
1764973334.2481573,0,0,29,3.625
1764973334.2521598,0,0,26,3.250
1764973334.2561584,0,0,26,3.250
1764973334.260164,0,0,27,3.375
1764973334.2641726,0,0,28,3.500
1764973334.2681725,0,0,29,3.625
1764973334.2721741,0,0,26,3.250
1764973334.276168,0,0,26,3.250
1764973334.2801797,0,0,26,3.250
1764973334.284175,0,0,28,3.500
1764973334.2881713,0,0,29,3.625
1764973334.2921667,0,0,26,3.250
1764973334.2961595,0,0,26,3.250
1764973334.3001673,0,0,27,3.375
1764973334.304188,0,0,28,3.500
1764973334.308169,0,0,29,3.625
1764973334.3121645,0,0,26,3.250
1764973334.316157,0,0,26,3.250
1764973334.3201675,0,0,27,3.375
1764973334.3241692,0,0,28,3.500
1764973334.328167,0,0,29,3.625
1764973334.3321712,0,0,26,3.250
1764973334.336166,0,0,26,3.250
1764973334.3401732,0,0,27,3.375
1764973334.3441722,0,0,28,3.500
1764973334.3481674,0,0,29,3.625
1764973334.3521664,0,0,27,3.375
1764973334.3561652,0,0,26,3.250
1764973334.360174,0,0,29,3.625
1764973334.3641691,0,0,29,3.625
1764973334.3681643,0,0,27,3.375
1764973334.3721652,0,0,26,3.250
1764973334.3761663,0,0,26,3.250
1764973334.3801713,0,0,28,3.500
1764973334.384167,0,0,29,3.625
1764973334.3881652,0,0,27,3.375
1764973334.3921647,0,0,26,3.250
1764973334.396162,0,0,26,3.250
1764973334.4001677,0,0,28,3.500
1764973334.4041808,0,0,29,3.625
1764973334.4081676,0,0,27,3.375
1764973334.4121687,0,0,25,3.125
1764973334.41616,0,0,26,3.250
1764973334.420172,0,0,28,3.500
1764973334.424246,0,0,29,3.625
1764973334.4281812,0,0,27,3.375
1764973334.4321613,0,0,25,3.125
1764973334.4361532,0,0,27,3.375
1764973334.4401665,0,0,28,3.500
1764973334.4441712,0,0,29,3.625
1764973334.4481683,0,0,28,3.500
1764973334.452159,0,0,26,3.250
1764973334.4561536,0,0,27,3.375
1764973334.4601603,0,0,28,3.500
1764973334.464173,0,0,29,3.625
1764973334.4681685,0,0,27,3.375
1764973334.4721694,0,0,26,3.250
1764973334.4761627,0,0,26,3.250
1764973334.4801764,0,0,28,3.500
1764973334.4841764,0,0,29,3.625
1764973334.4881697,0,0,27,3.375
1764973334.4921641,0,0,25,3.125
1764973334.4961524,0,0,26,3.250
1764973334.5001585,0,0,28,3.500
1764973334.5041664,0,0,29,3.625
1764973334.5081818,0,0,27,3.375
1764973334.5121574,0,0,26,3.250
1764973334.5161505,0,0,26,3.250
1764973334.5201573,0,0,28,3.500
1764973334.5241656,0,0,29,3.625
1764973334.528166,0,0,27,3.375
1764973334.5321612,0,0,26,3.250
1764973334.536153,0,0,26,3.250
1764973334.5401635,0,0,28,3.500
1764973334.5441692,0,0,29,3.625
1764973334.548167,0,0,28,3.500
1764973334.5521657,0,0,26,3.250
1764973334.5561628,0,0,26,3.250
1764973334.5601654,0,0,28,3.500
1764973334.5641503,0,0,29,3.625
1764973334.5681515,0,0,27,3.375
1764973334.572166,0,0,25,3.125
1764973334.5761633,0,0,26,3.250
1764973334.580171,0,0,28,3.500
1764973334.584162,0,0,28,3.500
1764973334.588163,0,0,28,3.500
1764973334.5921657,0,0,26,3.250
1764973334.5961645,0,0,26,3.250
1764973334.6001685,0,0,28,3.500
1764973334.6041615,0,0,29,3.625
1764973334.6082304,0,0,28,3.500
1764973334.6122122,0,0,26,3.250
1764973334.6162071,0,0,27,3.375
1764973334.6202114,0,0,27,3.375
1764973334.630229,0,0,28,3.500
1764973334.6322277,0,0,26,3.250
1764973334.6362116,0,0,26,3.250
1764973334.6402137,0,0,28,3.500
1764973334.6445813,0,0,29,3.625
1764973334.6483822,0,0,28,3.500
1764973334.6522367,0,0,26,3.250
1764973334.6562037,0,0,26,3.250
1764973334.6602066,0,0,28,3.500
1764973334.6642122,0,0,29,3.625
1764973334.6682036,0,0,28,3.500
1764973334.6722066,0,0,26,3.250
1764973334.6762033,0,0,26,3.250
1764973334.68021,0,0,28,3.500
1764973334.684221,0,0,28,3.500
1764973334.6882186,0,0,28,3.500
1764973334.6922026,0,0,25,3.125
1764973334.69619,0,0,26,3.250
1764973334.7003973,0,0,28,3.500
1764973334.7042139,0,0,29,3.625
1764973334.7082841,0,0,28,3.500
1764973334.7121623,0,0,26,3.250
1764973334.71615,0,0,26,3.250
1764973334.720154,0,0,27,3.375
1764973334.7241547,0,0,29,3.625
1764973334.7281501,0,0,28,3.500
1764973334.7321515,0,0,26,3.250
1764973334.7361488,0,0,26,3.250
1764973334.7401538,0,0,27,3.375
1764973334.7441654,0,0,29,3.625
1764973334.7481647,0,0,28,3.500
1764973334.7521658,0,0,26,3.250
1764973334.75616,0,0,26,3.250
1764973334.7601643,0,0,28,3.500
1764973334.7641647,0,0,29,3.625
1764973334.768164,0,0,29,3.625
1764973334.7721658,0,0,26,3.250
1764973334.7761567,0,0,26,3.250
1764973334.7801661,0,0,27,3.375
1764973334.784162,0,0,29,3.625
1764973334.7881637,0,0,29,3.625
1764973334.7921643,0,0,26,3.250
1764973334.7961628,0,0,26,3.250
1764973334.8001688,0,0,28,3.500
1764973334.8041606,0,0,29,3.625
1764973334.8081613,0,0,29,3.625
1764973334.8122025,0,0,25,3.125
1764973334.8161616,0,0,26,3.250
1764973334.820165,0,0,27,3.375
1764973334.82416,0,0,28,3.500
1764973334.8282306,0,0,28,3.500
1764973334.8321757,0,0,25,3.125
1764973334.836153,0,0,26,3.250
1764973334.8401558,0,0,27,3.375
1764973334.844164,0,0,29,3.625
1764973334.8481603,0,0,28,3.500
1764973334.8521588,0,0,25,3.125
1764973334.85615,0,0,26,3.250
1764973334.860164,0,0,27,3.375
1764973334.864169,0,0,29,3.625
1764973334.8681633,0,0,28,3.500
1764973334.8721669,0,0,26,3.250
1764973334.8761628,0,0,26,3.250
1764973334.8801706,0,0,27,3.375
1764973334.8841684,0,0,28,3.500
1764973334.8881721,0,0,29,3.625
1764973334.8921611,0,0,25,3.125
1764973334.8961504,0,0,25,3.125
1764973334.900161,0,0,27,3.375
1764973334.9041636,0,0,28,3.500
1764973334.9081616,0,0,29,3.625
1764973334.912156,0,0,26,3.250
1764973334.9161503,0,0,26,3.250
1764973334.920161,0,0,27,3.375
1764973334.9241655,0,0,29,3.625
1764973334.9281602,0,0,29,3.625
1764973334.9321613,0,0,26,3.250
1764973334.93616,0,0,26,3.250
1764973334.9401662,0,0,27,3.375
1764973334.9441607,0,0,28,3.500
1764973334.9481585,0,0,29,3.625
1764973334.9521525,0,0,26,3.250
1764973334.9561462,0,0,26,3.250
1764973334.9601552,0,0,27,3.375
1764973334.9641628,0,0,29,3.625
1764973334.9681623,0,0,29,3.625
1764973334.9721613,0,0,26,3.250
1764973334.9761546,0,0,26,3.250
1764973334.9801657,0,0,29,3.625
1764973334.984163,0,0,29,3.625
1764973334.9881623,0,0,26,3.250
1764973334.9921553,0,0,25,3.125
1764973334.9961545,0,0,27,3.375
1764973335.0001628,0,0,28,3.500
1764973335.004163,0,0,29,3.625
1764973335.0081596,0,0,25,3.125
1764973335.0121613,0,0,26,3.250
1764973335.0161572,0,0,27,3.375
1764973335.0201614,0,0,29,3.625
1764973335.0241597,0,0,29,3.625
1764973335.028239,0,0,26,3.250
1764973335.032171,0,0,26,3.250
1764973335.036146,0,0,27,3.375
1764973335.040152,0,0,28,3.500
1764973335.0441644,0,0,29,3.625
1764973335.0481632,0,0,26,3.250
1764973335.052155,0,0,26,3.250
1764973335.0561447,0,0,27,3.375
1764973335.0601542,0,0,28,3.500
1764973335.0641634,0,0,29,3.625
1764973335.0681632,0,0,26,3.250
1764973335.072155,0,0,26,3.250
1764973335.0761483,0,0,27,3.375
1764973335.0801523,0,0,28,3.500
1764973335.0841622,0,0,29,3.625
1764973335.08817,0,0,26,3.250
1764973335.09216,0,0,26,3.250
1764973335.0961475,0,0,26,3.250
1764973335.1001518,0,0,28,3.500
1764973335.104161,0,0,29,3.625
1764973335.108161,0,0,27,3.375
1764973335.1121664,0,0,26,3.250
1764973335.1161485,0,0,26,3.250
1764973335.120155,0,0,28,3.500
1764973335.1241603,0,0,29,3.625
1764973335.1281567,0,0,26,3.250
1764973335.1321602,0,0,25,3.125
1764973335.1361578,0,0,27,3.375
1764973335.1401627,0,0,28,3.500
1764973335.144158,0,0,29,3.625
1764973335.148156,0,0,26,3.250
1764973335.1521568,0,0,26,3.250
1764973335.1561556,0,0,26,3.250
1764973335.160162,0,0,28,3.500
1764973335.1641555,0,0,29,3.625
1764973335.168157,0,0,26,3.250
1764973335.1721566,0,0,26,3.250
1764973335.1761541,0,0,27,3.375
1764973335.1801617,0,0,28,3.500
1764973335.184161,0,0,29,3.625
1764973335.1881561,0,0,27,3.375
1764973335.1921535,0,0,26,3.250
1764973335.1961555,0,0,27,3.375
1764973335.2001636,0,0,28,3.500
1764973335.2041454,0,0,29,3.625
1764973335.2081397,0,0,27,3.375
1764973335.2121525,0,0,26,3.250
1764973335.2162588,0,0,26,3.250
1764973335.2202053,0,0,28,3.500
1764973335.224204,0,0,29,3.625
1764973335.2282696,0,0,27,3.375
1764973335.2322073,0,0,26,3.250
1764973335.2361841,0,0,26,3.250
1764973335.2401958,0,0,28,3.500
1764973335.2442043,0,0,29,3.625
1764973335.248199,0,0,27,3.375
1764973335.2521927,0,0,25,3.125
1764973335.2561822,0,0,27,3.375
1764973335.2602072,0,0,28,3.500
1764973335.2641885,0,0,29,3.625
1764973335.268185,0,0,27,3.375
1764973335.2721996,0,0,26,3.250
1764973335.2762008,0,0,26,3.250
1764973335.2802134,0,0,28,3.500
1764973335.2841892,0,0,29,3.625
1764973335.2881837,0,0,27,3.375
1764973335.2921975,0,0,26,3.250
1764973335.2962017,0,0,26,3.250
1764973335.3002038,0,0,28,3.500
1764973335.3041823,0,0,28,3.500
1764973335.3081818,0,0,27,3.375
1764973335.3122065,0,0,26,3.250
1764973335.3162863,0,0,27,3.375
1764973335.3201656,0,0,28,3.500
1764973335.3241594,0,0,29,3.625
1764973335.3281598,0,0,28,3.500
1764973335.3321579,0,0,26,3.250
1764973335.3361526,0,0,27,3.375
1764973335.340154,0,0,28,3.500
1764973335.3441553,0,0,30,3.750
1764973335.3481581,0,0,28,3.500
1764973335.3521593,0,0,25,3.125
1764973335.3561559,0,0,26,3.250
1764973335.3601573,0,0,28,3.500
1764973335.364154,0,0,29,3.625
1764973335.368159,0,0,28,3.500
1764973335.3721583,0,0,26,3.250
1764973335.3761532,0,0,26,3.250
1764973335.380153,0,0,28,3.500
1764973335.3841536,0,0,29,3.625
1764973335.3881545,0,0,28,3.500
1764973335.3921554,0,0,26,3.250
1764973335.396153,0,0,26,3.250
1764973335.4001608,0,0,28,3.500
1764973335.4041538,0,0,28,3.500
1764973335.408152,0,0,28,3.500
1764973335.4121568,0,0,26,3.250
1764973335.4161646,0,0,26,3.250
1764973335.4201581,0,0,28,3.500
1764973335.4241543,0,0,29,3.625
1764973335.4282277,0,0,28,3.500
1764973335.432168,0,0,26,3.250
1764973335.4361463,0,0,26,3.250
1764973335.440151,0,0,28,3.500
1764973335.4441557,0,0,28,3.500
1764973335.4481554,0,0,28,3.500
1764973335.4521475,0,0,26,3.250
1764973335.456143,0,0,26,3.250
1764973335.4601552,0,0,28,3.500
1764973335.464161,0,0,29,3.625
1764973335.4681528,0,0,28,3.500
1764973335.4721522,0,0,25,3.125
1764973335.476153,0,0,26,3.250
1764973335.4801602,0,0,28,3.500
1764973335.484156,0,0,29,3.625
1764973335.4881523,0,0,29,3.625
1764973335.4921458,0,0,25,3.125
1764973335.4961462,0,0,26,3.250
1764973335.5001543,0,0,27,3.375
1764973335.5041444,0,0,29,3.625
1764973335.5081372,0,0,29,3.625
1764973335.51215,0,0,26,3.250
1764973335.5161486,0,0,26,3.250
1764973335.5201578,0,0,27,3.375
1764973335.5241413,0,0,28,3.500
1764973335.5281394,0,0,28,3.500
1764973335.5321531,0,0,26,3.250
1764973335.5361488,0,0,26,3.250
1764973335.5401568,0,0,28,3.500
1764973335.5441546,0,0,29,3.625
1764973335.5481544,0,0,28,3.500
1764973335.552149,0,0,26,3.250
1764973335.5561469,0,0,26,3.250
1764973335.5601583,0,0,28,3.500
1764973335.5641525,0,0,29,3.625
1764973335.5681531,0,0,29,3.625
1764973335.5721552,0,0,25,3.125
1764973335.5761495,0,0,26,3.250
1764973335.5801487,0,0,28,3.500
1764973335.5841405,0,0,29,3.625
1764973335.5881388,0,0,29,3.625
1764973335.5921564,0,0,26,3.250
1764973335.5961502,0,0,28,3.500
1764973335.6001537,0,0,29,3.625
1764973335.6041534,0,0,28,3.500
1764973335.6081526,0,0,26,3.250
1764973335.6121566,0,0,26,3.250
1764973335.6161506,0,0,28,3.500
1764973335.6202075,0,0,28,3.500
1764973335.6241999,0,0,29,3.625
1764973335.6342483,0,0,27,3.375
1764973335.636141,0,0,27,3.375
1764973335.640212,0,0,28,3.500
1764973335.6445487,0,0,28,3.500
1764973335.6483855,0,0,26,3.250
1764973335.652226,0,0,26,3.250
1764973335.6561973,0,0,27,3.375
1764973335.660196,0,0,29,3.625
1764973335.664197,0,0,29,3.625
1764973335.6681914,0,0,26,3.250
1764973335.6722033,0,0,26,3.250
1764973335.676194,0,0,28,3.500
1764973335.6801944,0,0,29,3.625
1764973335.684202,0,0,28,3.500
1764973335.6882038,0,0,26,3.250
1764973335.6921906,0,0,26,3.250
1764973335.696182,0,0,27,3.375
1764973335.7002459,0,0,29,3.625
1764973335.7043233,0,0,29,3.625
1764973335.7081792,0,0,26,3.250
1764973335.7121856,0,0,26,3.250
1764973335.7161803,0,0,27,3.375
1764973335.720263,0,0,28,3.500
1764973335.7241447,0,0,29,3.625
1764973335.728139,0,0,26,3.250
1764973335.7321372,0,0,26,3.250
1764973335.7361395,0,0,27,3.375
1764973335.7401528,0,0,29,3.625
1764973335.74416,0,0,29,3.625
1764973335.7481494,0,0,26,3.250
1764973335.7521503,0,0,26,3.250
1764973335.7561488,0,0,27,3.375
1764973335.7601583,0,0,29,3.625
1764973335.7641547,0,0,29,3.625
1764973335.768149,0,0,26,3.250
1764973335.7721498,0,0,26,3.250
1764973335.7761476,0,0,27,3.375
1764973335.7801557,0,0,28,3.500
1764973335.784152,0,0,29,3.625
1764973335.7881496,0,0,25,3.125
1764973335.7921503,0,0,26,3.250
1764973335.7961473,0,0,27,3.375
1764973335.8001602,0,0,28,3.500
1764973335.8041506,0,0,29,3.625
1764973335.8081527,0,0,26,3.250
1764973335.8121507,0,0,25,3.125
1764973335.8161447,0,0,27,3.375
1764973335.8201873,0,0,28,3.500
1764973335.8241549,0,0,29,3.625
1764973335.8281522,0,0,26,3.250
1764973335.832229,0,0,25,3.125
1764973335.8361604,0,0,27,3.375
1764973335.8401551,0,0,29,3.625
1764973335.8441393,0,0,29,3.625
1764973335.8481393,0,0,26,3.250
1764973335.8521512,0,0,25,3.125
1764973335.856147,0,0,27,3.375
1764973335.8601532,0,0,28,3.500
1764973335.8641436,0,0,29,3.625
1764973335.8681388,0,0,26,3.250
1764973335.8721578,0,0,26,3.250
1764973335.8761446,0,0,27,3.375
1764973335.8801541,0,0,29,3.625
1764973335.8841536,0,0,29,3.625
1764973335.8881602,0,0,26,3.250
1764973335.8921487,0,0,26,3.250
1764973335.8961334,0,0,27,3.375
1764973335.9001412,0,0,28,3.500
1764973335.9041498,0,0,29,3.625
1764973335.908147,0,0,26,3.250
1764973335.912142,0,0,26,3.250
1764973335.916135,0,0,26,3.250
1764973335.9201438,0,0,28,3.500
1764973335.924188,0,0,29,3.625
1764973335.9281518,0,0,27,3.375
1764973335.9321518,0,0,25,3.125
1764973335.9361477,0,0,27,3.375
1764973335.9401512,0,0,28,3.500
1764973335.944148,0,0,29,3.625
1764973335.9481483,0,0,26,3.250
1764973335.9521446,0,0,25,3.125
1764973335.9561365,0,0,27,3.375
1764973335.960144,0,0,28,3.500
1764973335.9641485,0,0,29,3.625
1764973335.9681473,0,0,27,3.375
1764973335.9721508,0,0,26,3.250
1764973335.9761477,0,0,27,3.375
1764973335.9801521,0,0,28,3.500
1764973335.9841452,0,0,29,3.625
1764973335.988145,0,0,26,3.250
1764973335.992146,0,0,26,3.250
1764973335.9961467,0,0,27,3.375
1764973336.0001464,0,0,28,3.500
1764973336.0041459,0,0,29,3.625
1764973336.008147,0,0,26,3.250
1764973336.0121486,0,0,26,3.250
1764973336.0161448,0,0,26,3.250
1764973336.020146,0,0,28,3.500
1764973336.0241618,0,0,29,3.625
1764973336.0281463,0,0,27,3.375
1764973336.032224,0,0,26,3.250
1764973336.0361607,0,0,26,3.250
1764973336.0401547,0,0,28,3.500
1764973336.044139,0,0,29,3.625
1764973336.048134,0,0,27,3.375
1764973336.0521455,0,0,26,3.250
1764973336.0561435,0,0,26,3.250
1764973336.060151,0,0,28,3.500
1764973336.064135,0,0,29,3.625
1764973336.0681324,0,0,27,3.375
1764973336.0721533,0,0,26,3.250
1764973336.0761425,0,0,26,3.250
1764973336.080148,0,0,28,3.500
1764973336.0841522,0,0,29,3.625
1764973336.088158,0,0,27,3.375
1764973336.0921416,0,0,26,3.250
1764973336.0961323,0,0,26,3.250
1764973336.1001432,0,0,28,3.500
1764973336.1041467,0,0,29,3.625
1764973336.108145,0,0,27,3.375
1764973336.1121361,0,0,25,3.125
1764973336.11613,0,0,27,3.375
1764973336.1201386,0,0,28,3.500
1764973336.1241837,0,0,29,3.625
1764973336.1281476,0,0,28,3.500
1764973336.1321461,0,0,26,3.250
1764973336.1361406,0,0,27,3.375
1764973336.1401458,0,0,28,3.500
1764973336.1441455,0,0,29,3.625
1764973336.1481466,0,0,27,3.375
1764973336.152145,0,0,26,3.250
1764973336.156139,0,0,26,3.250
1764973336.160148,0,0,28,3.500
1764973336.1641428,0,0,29,3.625
1764973336.1681454,0,0,27,3.375
1764973336.1721447,0,0,26,3.250
1764973336.1761408,0,0,26,3.250
1764973336.1801414,0,0,28,3.500
1764973336.1841426,0,0,29,3.625
1764973336.1881447,0,0,28,3.500
1764973336.1921456,0,0,26,3.250
1764973336.1961436,0,0,26,3.250
1764973336.2001402,0,0,28,3.500
1764973336.20413,0,0,29,3.625
1764973336.2081342,0,0,28,3.500
1764973336.212144,0,0,25,3.125
1764973336.216141,0,0,28,3.500
1764973336.2201405,0,0,29,3.625
1764973336.224143,0,0,28,3.500
1764973336.2282434,0,0,26,3.250
1764973336.2322683,0,0,26,3.250
1764973336.2362022,0,0,28,3.500
1764973336.2401946,0,0,29,3.625
1764973336.2441728,0,0,28,3.500
1764973336.2481725,0,0,25,3.125
1764973336.2521882,0,0,26,3.250
1764973336.2561865,0,0,28,3.500
1764973336.2601902,0,0,29,3.625
1764973336.26417,0,0,28,3.500
1764973336.2681708,0,0,26,3.250
1764973336.2721863,0,0,26,3.250
1764973336.2761822,0,0,28,3.500
1764973336.280195,0,0,29,3.625
1764973336.2841685,0,0,28,3.500
1764973336.2881742,0,0,26,3.250
1764973336.2921944,0,0,27,3.375
1764973336.2961802,0,0,28,3.500
1764973336.3001916,0,0,29,3.625
1764973336.3041747,0,0,28,3.500
1764973336.308169,0,0,25,3.125
1764973336.3121848,0,0,26,3.250
1764973336.316181,0,0,28,3.500
1764973336.3201907,0,0,29,3.625
1764973336.3241735,0,0,28,3.500
1764973336.32815,0,0,25,3.125
1764973336.3321433,0,0,26,3.250
1764973336.3361406,0,0,28,3.500
1764973336.340149,0,0,29,3.625
1764973336.3441439,0,0,28,3.500
1764973336.3481438,0,0,25,3.125
1764973336.3521428,0,0,26,3.250
1764973336.3561387,0,0,28,3.500
1764973336.3601446,0,0,29,3.625
1764973336.3641431,0,0,28,3.500
1764973336.3681421,0,0,26,3.250
1764973336.372142,0,0,26,3.250
1764973336.3761382,0,0,27,3.375
1764973336.380142,0,0,28,3.500
1764973336.384143,0,0,28,3.500
1764973336.388142,0,0,25,3.125
1764973336.3921397,0,0,26,3.250
1764973336.3961368,0,0,27,3.375
1764973336.4001374,0,0,28,3.500
1764973336.4041414,0,0,28,3.500
1764973336.408143,0,0,25,3.125
1764973336.4121447,0,0,26,3.250
1764973336.416137,0,0,27,3.375
1764973336.4201372,0,0,28,3.500
1764973336.4241438,0,0,28,3.500
1764973336.4281561,0,0,26,3.250
1764973336.4322236,0,0,26,3.250
1764973336.4361534,0,0,28,3.500
1764973336.4401453,0,0,28,3.500
1764973336.444142,0,0,28,3.500
1764973336.4481401,0,0,26,3.250
1764973336.4521387,0,0,26,3.250
1764973336.4561396,0,0,27,3.375
1764973336.4601374,0,0,28,3.500
1764973336.4641383,0,0,29,3.625
1764973336.4681377,0,0,26,3.250
1764973336.4721472,0,0,26,3.250
1764973336.476139,0,0,28,3.500
1764973336.4801426,0,0,29,3.625
1764973336.4841542,0,0,29,3.625
1764973336.488153,0,0,26,3.250
1764973336.4921393,0,0,26,3.250
1764973336.496132,0,0,27,3.375
1764973336.500134,0,0,29,3.625
1764973336.5041394,0,0,29,3.625
1764973336.5081377,0,0,26,3.250
1764973336.5121338,0,0,26,3.250
1764973336.5161278,0,0,28,3.500
1764973336.520141,0,0,29,3.625
1764973336.5241406,0,0,29,3.625
1764973336.528152,0,0,26,3.250
1764973336.5321352,0,0,26,3.250
1764973336.536129,0,0,27,3.375
1764973336.5401347,0,0,29,3.625
1764973336.5441387,0,0,29,3.625
1764973336.548138,0,0,26,3.250
1764973336.5521374,0,0,26,3.250
1764973336.5561373,0,0,27,3.375
1764973336.560143,0,0,29,3.625
1764973336.5641382,0,0,29,3.625
1764973336.5681374,0,0,26,3.250
1764973336.5721388,0,0,26,3.250
1764973336.5761359,0,0,27,3.375
1764973336.5801373,0,0,28,3.500
1764973336.5841403,0,0,29,3.625
1764973336.5881362,0,0,26,3.250
1764973336.5921369,0,0,26,3.250
1764973336.5961375,0,0,27,3.375
1764973336.6001432,0,0,29,3.625
1764973336.6041284,0,0,29,3.625
1764973336.608125,0,0,25,3.125
1764973336.6121354,0,0,26,3.250
1764973336.6161368,0,0,27,3.375
1764973336.6201434,0,0,29,3.625
1764973336.6241393,0,0,29,3.625
1764973336.6281497,0,0,26,3.250
1764973336.6370723,0,0,28,3.500
1764973336.6401777,0,0,28,3.500
1764973336.6445067,0,0,29,3.625
1764973336.6482909,0,0,26,3.250
1764973336.6521616,0,0,26,3.250
1764973336.6561377,0,0,27,3.375
1764973336.6601393,0,0,28,3.500
1764973336.6641424,0,0,29,3.625
1764973336.668139,0,0,26,3.250
1764973336.6721547,0,0,26,3.250
1764973336.6761322,0,0,27,3.375
1764973336.680133,0,0,28,3.500
1764973336.6841397,0,0,29,3.625
1764973336.68815,0,0,26,3.250
1764973336.6921396,0,0,26,3.250
1764973336.6961355,0,0,27,3.375
1764973336.7001297,0,0,28,3.500
1764973336.7041392,0,0,28,3.500
1764973336.7081382,0,0,26,3.250
1764973336.7121508,0,0,26,3.250
1764973336.7161322,0,0,26,3.250
1764973336.7201355,0,0,28,3.500
1764973336.7241383,0,0,29,3.625
1764973336.7281377,0,0,26,3.250
1764973336.73218,0,0,26,3.250
1764973336.7361364,0,0,27,3.375
1764973336.74014,0,0,28,3.500
1764973336.7441375,0,0,30,3.750
1764973336.7481387,0,0,26,3.250
1764973336.7521405,0,0,25,3.125
1764973336.756136,0,0,26,3.250
1764973336.7601383,0,0,28,3.500
1764973336.7641358,0,0,29,3.625
1764973336.7681353,0,0,27,3.375
1764973336.7721307,0,0,26,3.250
1764973336.7761254,0,0,27,3.375
1764973336.7801523,0,0,28,3.500
1764973336.7841425,0,0,29,3.625
1764973336.7881362,0,0,27,3.375
1764973336.792139,0,0,26,3.250
1764973336.7961366,0,0,27,3.375
1764973336.8001506,0,0,28,3.500
1764973336.8041377,0,0,29,3.625
1764973336.808134,0,0,27,3.375
1764973336.812139,0,0,26,3.250
1764973336.8161354,0,0,27,3.375
1764973336.8201375,0,0,28,3.500
1764973336.824135,0,0,30,3.750
1764973336.8281357,0,0,27,3.375
1764973336.8321376,0,0,26,3.250
1764973336.836208,0,0,29,3.625
1764973336.8401558,0,0,29,3.625
1764973336.844128,0,0,27,3.375
1764973336.8481245,0,0,26,3.250
1764973336.8521357,0,0,27,3.375
1764973336.8561347,0,0,28,3.500
1764973336.8601406,0,0,28,3.500
1764973336.864125,0,0,27,3.375
1764973336.8681254,0,0,25,3.125
1764973336.8721387,0,0,26,3.250
1764973336.8761363,0,0,29,3.625
1764973336.8801522,0,0,29,3.625
1764973336.884153,0,0,27,3.375
1764973336.8881464,0,0,26,3.250
1764973336.892132,0,0,26,3.250
1764973336.896134,0,0,29,3.625
1764973336.9001317,0,0,29,3.625
1764973336.9041357,0,0,28,3.500
1764973336.9081352,0,0,25,3.125
1764973336.912139,0,0,26,3.250
1764973336.9161203,0,0,28,3.500
1764973336.9201324,0,0,29,3.625
1764973336.9241407,0,0,27,3.375
1764973336.9281366,0,0,25,3.125
1764973336.932176,0,0,26,3.250
1764973336.9361336,0,0,28,3.500
1764973336.9401393,0,0,29,3.625
1764973336.9441373,0,0,28,3.500
1764973336.9481363,0,0,26,3.250
1764973336.9521291,0,0,26,3.250
1764973336.9561212,0,0,28,3.500
1764973336.9601228,0,0,29,3.625
1764973336.9641316,0,0,28,3.500
1764973336.9682431,0,0,26,3.250
1764973336.9721467,0,0,26,3.250
1764973336.976123,0,0,28,3.500
1764973336.9801185,0,0,28,3.500
1764973336.9841216,0,0,28,3.500
1764973336.9881215,0,0,25,3.125
1764973336.9921231,0,0,26,3.250
1764973336.9961185,0,0,28,3.500
1764973337.0001261,0,0,29,3.625
1764973337.0041358,0,0,28,3.500
1764973337.0081363,0,0,26,3.250
1764973337.0121396,0,0,26,3.250
1764973337.0161345,0,0,28,3.500
1764973337.0201378,0,0,29,3.625
1764973337.0241323,0,0,28,3.500
1764973337.0281363,0,0,25,3.125
1764973337.0321512,0,0,26,3.250
1764973337.0362115,0,0,28,3.500
1764973337.0401537,0,0,29,3.625
1764973337.0441337,0,0,28,3.500
1764973337.0481331,0,0,26,3.250
1764973337.0521355,0,0,26,3.250
1764973337.056134,0,0,28,3.500
1764973337.060136,0,0,29,3.625
1764973337.0641208,0,0,28,3.500
1764973337.0681205,0,0,25,3.125
1764973337.0721402,0,0,26,3.250
1764973337.0761316,0,0,28,3.500
1764973337.080147,0,0,29,3.625
1764973337.0841298,0,0,28,3.500
1764973337.0881476,0,0,25,3.125
1764973337.0921364,0,0,26,3.250
1764973337.0961204,0,0,27,3.375
1764973337.1001296,0,0,29,3.625
1764973337.104144,0,0,28,3.500
1764973337.1081314,0,0,25,3.125
1764973337.1121218,0,0,26,3.250
1764973337.1161199,0,0,28,3.500
1764973337.1201415,0,0,29,3.625
1764973337.1241376,0,0,28,3.500
1764973337.1281326,0,0,26,3.250
1764973337.132133,0,0,26,3.250
1764973337.1361692,0,0,28,3.500
1764973337.140137,0,0,28,3.500
1764973337.1441336,0,0,29,3.625
1764973337.1481316,0,0,26,3.250
1764973337.1521318,0,0,26,3.250
1764973337.1561284,0,0,28,3.500
1764973337.1601374,0,0,29,3.625
1764973337.1641324,0,0,28,3.500
1764973337.1681297,0,0,26,3.250
1764973337.172131,0,0,26,3.250
1764973337.176127,0,0,27,3.375
1764973337.1801357,0,0,28,3.500
1764973337.184134,0,0,28,3.500
1764973337.1881318,0,0,25,3.125
1764973337.1921282,0,0,26,3.250
1764973337.196126,0,0,28,3.500
1764973337.2001367,0,0,29,3.625
1764973337.204121,0,0,29,3.625
1764973337.2081187,0,0,26,3.250
1764973337.2121267,0,0,26,3.250
1764973337.2161267,0,0,28,3.500
1764973337.2201285,0,0,28,3.500
1764973337.2241328,0,0,29,3.625
1764973337.2281313,0,0,26,3.250
1764973337.2321315,0,0,26,3.250
1764973337.2362306,0,0,27,3.375
1764973337.2401497,0,0,28,3.500
1764973337.2441213,0,0,29,3.625
1764973337.248121,0,0,25,3.125
1764973337.2521353,0,0,26,3.250
1764973337.2561285,0,0,28,3.500
1764973337.260133,0,0,29,3.625
1764973337.2641218,0,0,29,3.625
1764973337.2681203,0,0,26,3.250
1764973337.2721379,0,0,26,3.250
1764973337.2761266,0,0,27,3.375
1764973337.2801344,0,0,28,3.500
1764973337.2841291,0,0,29,3.625
