Timestamp,LO_plus,LO_minus,Raw_ADC,Voltage_mV
1765549189.7701101,0,0,20262,2532.750
1765549189.771904,0,0,13572,1696.500
1765549189.7756858,1,1,4423,552.875
1765549189.7796764,1,0,9208,1151.000
1765549189.783681,0,0,17907,2238.375
1765549189.7876756,0,0,20211,2526.375
1765549189.7916794,0,0,14650,1831.250
1765549189.795757,1,1,5695,711.875
1765549189.7997108,1,0,9628,1203.500
1765549189.803682,0,0,18006,2250.750
1765549189.8076773,0,0,20259,2532.375
1765549189.811687,0,0,15130,1891.250
1765549189.81569,1,1,6052,756.500
1765549189.8196867,1,0,9345,1168.125
1765549189.8236818,0,0,17891,2236.375
1765549189.827676,0,0,20231,2528.875
1765549189.831681,0,0,15394,1924.250
1765549189.835687,1,1,6051,756.375
1765549189.839684,1,0,8707,1088.375
1765549189.8436818,0,0,17658,2207.250
1765549189.8476758,0,0,20173,2521.625
1765549189.8516808,0,0,15821,1977.625
1765549189.8556871,1,1,6389,798.625
1765549189.859686,1,0,8433,1054.125
1765549189.8636878,0,0,17527,2190.875
1765549189.867687,0,0,20136,2517.000
1765549189.871688,0,0,16149,2018.625
1765549189.8756843,1,1,6563,820.375
1765549189.879685,1,0,7983,997.875
1765549189.883688,0,0,17327,2165.875
1765549189.8876822,0,0,20078,2509.750
1765549189.8916848,0,0,16466,2058.250
1765549189.8956828,1,1,6707,838.375
1765549189.899685,1,0,7534,941.750
1765549189.9036872,0,0,17116,2139.500
1765549189.9076848,0,0,20018,2502.250
1765549189.9116862,0,0,16939,2117.375
1765549189.9156818,1,1,7273,909.125
1765549189.919684,1,0,7475,934.375
1765549189.923686,0,0,17010,2126.250
1765549189.9276836,0,0,19981,2497.625
1765549189.9316857,0,0,17276,2159.500
1765549189.9356844,1,1,7561,945.125
1765549189.9396822,1,0,7196,899.500
1765549189.943687,0,0,16823,2102.875
1765549189.9476833,0,0,19921,2490.125
1765549189.9516826,0,0,17118,2139.750
1765549189.9556842,1,0,6705,838.125
1765549189.9596832,1,0,5718,714.750
1765549189.9636865,0,0,16194,2024.250
1765549189.9677281,0,0,19760,2470.000
1765549189.971696,0,0,17713,2214.125
1765549189.9756846,1,0,7711,963.875
1765549189.9796834,1,0,6184,773.000
1765549189.9836843,0,0,16251,2031.375
1765549189.9876823,0,0,19775,2471.875
1765549189.9916863,0,0,18038,2254.750
1765549189.9956825,1,0,8075,1009.375
1765549189.9996805,1,0,5982,747.750
1765549190.0036855,0,0,16030,2003.750
1765549190.007684,0,0,19711,2463.875
1765549190.0116863,0,0,18275,2284.375
1765549190.0156813,1,0,8269,1033.625
1765549190.0196803,1,0,5599,699.875
1765549190.0236838,0,0,15721,1965.125
1765549190.0276878,0,0,19625,2453.125
1765549190.0316849,0,0,18510,2313.750
1765549190.0356812,1,0,8575,1071.875
1765549190.0396838,1,0,5381,672.625
1765549190.0437422,0,0,15459,1932.375
1765549190.0477746,0,0,19552,2444.000
1765549190.051802,0,0,18743,2342.875
1765549190.0556989,1,0,8910,1113.750
1765549190.0597553,1,0,5209,651.125
1765549190.0637202,0,0,15201,1900.125
1765549190.0676758,0,0,19479,2434.875
1765549190.071693,0,0,18915,2364.375
1765549190.0756826,1,0,9105,1138.125
1765549190.0796707,1,0,4886,610.750
1765549190.0836835,0,0,14854,1856.750
1765549190.0877926,0,0,19385,2423.125
1765549190.0917583,0,0,19120,2390.000
1765549190.0956836,1,0,9476,1184.500
1765549190.0996728,1,0,4755,594.375
1765549190.1036842,0,0,14549,1818.625
1765549190.107681,0,0,19302,2412.750
1765549190.1116838,0,0,19304,2413.000
1765549190.1156726,1,0,9871,1233.875
1765549190.119737,1,0,4683,585.375
1765549190.1236877,0,0,14263,1782.875
1765549190.1276734,0,0,19224,2403.000
1765549190.1316755,0,0,19316,2414.500
1765549190.1356823,1,0,9524,1190.500
1765549190.1396816,1,0,3716,464.500
1765549190.1436782,0,0,13482,1685.250
1765549190.1476736,0,0,19023,2377.875
1765549190.1516857,0,0,19555,2444.375
1765549190.155687,1,0,10438,1304.750
1765549190.1596823,1,0,4317,539.625
1765549190.1636777,0,0,13446,1680.750
1765549190.1677442,0,0,19017,2377.125
1765549190.1716914,0,0,19674,2459.250
1765549190.1757207,1,0,10617,1327.125
1765549190.179723,1,0,4040,505.000
1765549190.183706,0,0,12991,1623.875
1765549190.1876721,0,0,18899,2362.375
1765549190.1916876,0,0,19844,2480.500
1765549190.1956825,1,0,11419,1427.375
1765549190.1996794,1,0,4596,574.500
1765549190.2036848,0,0,12901,1612.625
1765549190.2076807,0,0,18870,2358.750
1765549190.2117946,0,0,19968,2496.000
1765549190.215748,1,0,11988,1498.500
1765549190.2197435,1,0,4899,612.375
1765549190.223763,0,0,12669,1583.625
1765549190.227758,0,0,18800,2350.000
1765549190.231761,0,0,20049,2506.125
1765549190.235806,1,0,12494,1561.750
1765549190.239762,1,0,5133,641.625
1765549190.2437553,0,0,12363,1545.375
1765549190.2477455,0,0,18705,2338.125
1765549190.2517476,0,0,20083,2510.375
1765549190.2557595,1,0,12760,1595.000
1765549190.2598023,1,0,5080,635.000
1765549190.2637641,0,0,11871,1483.875
1765549190.267744,0,0,18562,2320.250
1765549190.2717483,0,0,20114,2514.250
1765549190.2757554,1,0,13256,1657.000
1765549190.279797,1,0,5353,669.125
1765549190.2837675,0,0,11541,1442.625
1765549190.2877455,0,0,18458,2307.250
1765549190.29175,0,0,20120,2515.000
1765549190.2957551,1,0,13502,1687.750
1765549190.2997532,1,0,5303,662.875
1765549190.3037481,0,0,10962,1370.250
1765549190.3077424,0,0,18286,2285.750
1765549190.3117545,0,0,20080,2510.000
1765549190.3158634,1,0,13251,1656.375
1765549190.3198314,1,0,4458,557.250
1765549190.323834,0,0,9745,1218.125
1765549190.327832,0,0,17941,2242.625
1765549190.331843,0,0,20061,2507.625
1765549190.3359082,1,0,14165,1770.625
1765549190.3398416,1,0,5434,679.250
1765549190.3438272,0,0,9889,1236.125
1765549190.3478138,0,0,17962,2245.250
1765549190.3518195,0,0,20087,2510.875
1765549190.3558323,1,0,14488,1811.000
1765549190.3598287,1,0,5504,688.000
1765549190.363829,0,0,9371,1171.375
1765549190.36793,0,0,17792,2224.000
1765549190.3718584,0,0,20059,2507.375
1765549190.375819,1,0,14812,1851.500
1765549190.3798127,1,0,5615,701.875
1765549190.3838356,0,0,17603,2200.375
1765549190.3878303,0,0,20018,2502.250
1765549190.3918364,0,0,15120,1890.000
1765549190.3958926,1,0,5670,708.750
1765549190.399837,1,0,8285,1035.625
1765549190.40383,0,0,17400,2175.000
1765549190.407827,0,0,19955,2494.375
1765549190.4118302,0,0,14120,1765.000
1765549190.4157968,1,0,3393,424.125
1765549190.4197896,1,0,5591,698.875
1765549190.4237797,0,0,16522,2065.250
1765549190.4277692,0,0,19776,2472.000
1765549190.4317791,0,0,15467,1933.375
1765549190.4357908,1,0,5328,666.000
1765549190.439786,1,0,6666,833.250
1765549190.4437802,0,0,16824,2103.000
1765549190.447769,0,0,19879,2484.875
1765549190.4517758,0,0,16212,2026.500
1765549190.4557874,1,0,6240,780.000
1765549190.4597907,1,0,6925,865.625
1765549190.4638472,0,0,16842,2105.250
1765549190.4677913,0,0,19886,2485.750
1765549190.4717898,0,0,16502,2062.750
1765549190.4757824,1,0,6350,793.750
1765549190.4798357,1,0,6453,806.625
1765549190.4837906,0,0,16602,2075.250
1765549190.4877696,0,0,19824,2478.000
1765549190.4917758,0,0,16494,2061.750
1765549190.496149,1,0,5828,728.500
1765549190.4999354,1,0,5314,664.250
1765549190.503823,0,0,16109,2013.625
1765549190.507786,0,0,19707,2463.375
1765549190.5117855,0,0,17236,2154.500
1765549190.5157862,1,0,7028,878.500
1765549190.5197835,1,0,5940,742.500
1765549190.5237849,0,0,16228,2028.500
1765549190.5277858,0,0,19741,2467.625
1765549190.5317822,0,0,17704,2213.000
1765549190.53578,1,0,7682,960.250
1765549190.539783,1,0,6052,756.500
1765549190.5438554,0,0,16141,2017.625
1765549190.54779,0,0,19711,2463.875
1765549190.5517855,0,0,18154,2269.250
1765549190.5561695,1,0,8430,1053.750
1765549190.5605893,1,0,6310,788.750
1765549190.5639534,0,0,16094,2011.750
1765549190.5679047,0,0,19683,2460.375
1765549190.5718074,0,0,18350,2293.750
1765549190.575768,1,0,8598,1074.750
1765549190.579766,1,0,5969,746.125
1765549190.5837903,0,0,15810,1976.250
1765549190.587791,0,0,19592,2449.000
1765549190.5917916,0,0,18559,2319.875
1765549190.595773,1,0,8823,1102.875
1765549190.5997634,1,0,5627,703.375
1765549190.603789,0,0,15487,1935.875
1765549190.6078467,0,0,19494,2436.750
1765549190.611802,0,0,18702,2337.750
1765549190.6158328,1,0,8907,1113.375
1765549190.6197822,1,0,5162,645.250
1765549190.6237838,0,0,15100,1887.500
1765549190.627781,0,0,19384,2423.000
1765549190.6317902,0,0,18942,2367.750
1765549190.6357863,1,0,9409,1176.125
1765549190.6397805,1,0,5191,648.875
1765549190.6437836,0,0,14892,1861.500
1765549190.6477845,0,0,19320,2415.000
1765549190.6517863,0,0,18888,2361.000
1765549190.6557817,1,0,8776,1097.000
1765549190.6598074,1,0,3870,483.750
1765549190.663838,0,0,14039,1754.875
1765549190.667772,0,0,19098,2387.250
1765549190.6718404,0,0,18950,2368.750
1765549190.6757817,1,0,8704,1088.000
1765549190.6797698,1,0,3213,401.625
1765549190.6837842,0,0,13450,1681.250
1765549190.6877813,0,0,18958,2369.750
1765549190.691785,0,0,19351,2418.875
1765549190.6957695,1,0,10114,1264.250
1765549190.6998513,1,0,4406,550.750
1765549190.703797,0,0,13752,1719.000
1765549190.7077837,0,0,19040,2380.000
1765549190.7117875,0,0,19636,2454.500
1765549190.7158244,1,0,11076,1384.500
1765549190.7198374,1,0,5164,645.500
1765549190.723784,0,0,13849,1731.125
1765549190.727763,0,0,19051,2381.375
1765549190.7317736,0,0,19760,2470.000
1765549190.7357855,1,0,11442,1430.250
1765549190.7397828,1,0,5135,641.875
1765549190.7437747,0,0,13489,1686.125
1765549190.7477627,0,0,18940,2367.500
1765549190.7517762,0,0,19840,2480.000
1765549190.7557898,1,0,11833,1479.125
1765549190.7597837,1,0,5178,647.250
1765549190.7637875,0,0,13145,1643.125
1765549190.7734437,0,0,19884,2485.500
1765549190.7757835,0,0,12038,1504.750
1765549190.779819,1,0,4983,622.875
1765549190.7838092,0,0,12612,1576.500
1765549190.7877781,0,0,18679,2334.875
1765549190.7917788,0,0,19898,2487.250
1765549190.7958238,0,0,12172,1521.500
1765549190.799776,1,0,4717,589.625
1765549190.8037694,0,0,11984,1498.000
1765549190.8077657,0,0,18507,2313.375
1765549190.811772,0,0,19900,2487.500
1765549190.8158047,0,0,12220,1527.500
1765549190.8197665,1,0,4309,538.625
1765549190.8237665,0,0,11202,1400.250
1765549190.8277671,0,0,18296,2287.000
1765549190.8317733,0,0,19874,2484.250
1765549190.8357654,0,0,12019,1502.375
1765549190.8397622,1,0,3563,445.375
1765549190.8437645,0,0,10147,1268.375
1765549190.847765,0,0,18018,2252.250
1765549190.8517716,0,0,19880,2485.000
1765549190.8557808,0,0,12369,1546.125
1765549190.8597786,1,0,3590,448.750
1765549190.8637838,0,0,9536,1192.000
1765549190.8678522,0,0,17857,2232.125
1765549190.871854,0,0,19957,2494.625
1765549190.8757894,0,0,13521,1690.125
1765549190.8797796,1,0,4857,607.125
1765549190.8837838,0,0,9933,1241.625
1765549190.8877826,0,0,17959,2244.875
1765549190.8917856,0,0,20032,2504.000
1765549190.8957827,0,0,14104,1763.000
1765549190.8997836,1,0,5321,665.125
1765549190.9037724,0,0,9720,1215.000
1765549190.907829,0,0,17878,2234.750
1765549190.9117944,0,0,20038,2504.750
1765549190.9158027,0,0,14687,1835.875
1765549190.9197652,1,0,5835,729.375
1765549190.9237812,0,0,9547,1193.375
1765549190.9277806,0,0,17797,2224.625
1765549190.9317834,0,0,20026,2503.250
1765549190.9358382,0,0,15179,1897.375
1765549190.9397857,1,0,6247,780.875
1765549190.9437814,0,0,9296,1162.000
1765549190.9477794,0,0,17682,2210.250
1765549190.9517772,0,0,19992,2499.000
1765549190.955782,0,0,15634,1954.250
1765549190.95978,1,0,6631,828.875
1765549190.9638503,0,0,9047,1130.875
1765549190.9677935,0,0,17559,2194.875
1765549190.971854,0,0,19912,2489.000
1765549190.975778,0,0,13259,1657.375
1765549190.9797666,1,0,2157,269.625
1765549190.9837806,0,0,4624,578.000
1765549190.9877787,0,0,16135,2016.875
1765549190.991786,0,0,19621,2452.625
1765549190.9957685,0,0,16140,2017.500
1765549190.9997659,1,0,6682,835.250
1765549191.0038404,0,0,7850,981.250
1765549191.0077765,0,0,17136,2142.000
1765549191.0117676,0,0,19894,2486.750
1765549191.0157812,0,0,16658,2082.250
1765549191.0198195,1,0,7205,900.625
1765549191.023771,0,0,7799,974.875
1765549191.027766,0,0,17041,2130.125
1765549191.0317724,0,0,19853,2481.625
1765549191.0357838,0,0,9126,1140.750
1765549191.039781,1,0,9128,1141.000
1765549191.043774,0,0,17380,2172.500
1765549191.0477638,0,0,19906,2488.250
1765549191.0517688,0,0,18331,2291.375
1765549191.055782,0,0,10397,1299.625
1765549191.05978,1,0,9885,1235.625
1765549191.0637841,0,0,17506,2188.250
1765549191.0677767,0,0,19883,2485.375
1765549191.0718105,0,0,18467,2308.375
1765549191.0758803,0,0,10495,1311.875
1765549191.0798016,1,0,9553,1194.125
1765549191.0837789,0,0,17274,2159.250
1765549191.0877628,0,0,19768,2471.000
1765549191.0917642,0,0,18887,2360.875
1765549191.0957608,0,0,11569,1446.125
1765549191.0998242,1,0,10225,1278.125
1765549191.1037788,1,0,17371,2171.375
1765549191.107765,0,0,19731,2466.375
1765549191.111771,0,0,19268,2408.500
1765549191.1157794,0,0,12763,1595.375
1765549191.119818,1,0,11082,1385.250
1765549191.1237721,0,0,17511,2188.875
1765549191.127764,0,0,19689,2461.125
1765549191.1317632,0,0,18986,2373.250
1765549191.1357613,0,0,11574,1446.750
1765549191.139759,1,0,9390,1173.750
1765549191.1437774,0,0,16759,2094.875
1765549191.14778,0,0,19432,2429.000
1765549191.1517808,0,0,18954,2369.250
1765549191.1557777,0,0,11442,1430.250
1765549191.1597764,1,0,8801,1100.125
1765549191.1637833,0,0,16383,2047.875
1765549191.167776,0,0,19287,2410.875
1765549191.17186,0,0,18976,2372.000
1765549191.175949,0,0,11371,1421.375
1765549191.1798112,1,0,8249,1031.125
1765549191.183782,0,0,16003,2000.375
1765549191.1877654,0,0,19150,2393.750
1765549191.191775,0,0,18715,2339.375
1765549191.1957786,0,0,10097,1262.125
1765549191.1997778,1,0,6277,784.625
1765549191.2037694,0,0,15012,1876.500
1765549191.207763,0,0,18877,2359.625
1765549191.2117708,0,0,19046,2380.750
1765549191.2157636,0,0,11469,1433.625
1765549191.219789,1,0,7405,925.625
1765549191.223828,0,0,15300,1912.500
1765549191.2278247,0,0,18936,2367.000
1765549191.2318249,0,0,19248,2406.000
1765549191.2358248,0,0,12164,1520.500
1765549191.2398195,1,0,7807,975.875
1765549191.2438219,0,0,15268,1908.500
1765549191.247818,0,0,18899,2362.375
1765549191.2518232,0,0,19298,2412.250
1765549191.2558272,0,0,12287,1535.875
1765549191.2600367,1,0,7529,941.125
1765549191.263857,0,0,14916,1864.500
1765549191.2678037,0,0,18779,2347.375
1765549191.2718127,0,0,19358,2419.750
1765549191.2758236,0,0,12669,1583.625
1765549191.2798197,1,0,7576,947.000
1765549191.28381,0,0,14687,1835.875
1765549191.2878015,0,0,18691,2336.375
1765549191.2918947,0,0,19386,2423.250
1765549191.2958171,0,0,12893,1611.625
1765549191.2998037,1,0,7454,931.750
1765549191.3038332,0,0,14367,1795.875
1765549191.3078785,0,0,18580,2322.500
1765549191.3118567,0,0,19394,2424.250
1765549191.3158085,0,0,13035,1629.375
1765549191.3198435,1,0,7226,903.250
1765549191.3238308,0,0,13947,1743.375
1765549191.3278267,0,0,18448,2306.000
1765549191.3318243,0,0,19331,2416.375
1765549191.335803,0,0,12565,1570.625
1765549191.3398688,1,0,6136,767.000
1765549191.3438172,0,0,12994,1624.250
1765549191.3477993,0,0,18188,2273.500
1765549191.3518095,0,0,19384,2423.000
1765549191.3558218,0,0,13582,1697.750
1765549191.3598213,1,0,7182,897.750
1765549191.3638122,0,0,13243,1655.375
1765549191.3678024,0,0,18241,2280.125
1765549191.371979,0,0,19365,2420.625
1765549191.375826,0,0,12998,1624.750
1765549191.3798046,1,0,5918,739.750
1765549191.3838246,0,0,12053,1506.625
1765549191.3878267,0,0,17922,2240.250
1765549191.3918304,0,0,19379,2422.375
1765549191.3958035,0,0,14217,1777.125
1765549191.3998022,1,0,7374,921.750
1765549191.4038198,0,0,12563,1570.375
1765549191.4078221,0,0,18044,2255.500
1765549191.4118192,0,0,19428,2428.500
1765549191.4158006,0,0,14624,1828.000
1765549191.4198027,1,0,7611,951.375
1765549191.4237888,0,0,12285,1535.625
1765549191.4277773,0,0,17948,2243.500
1765549191.431779,0,0,19404,2425.500
1765549191.4357746,0,0,14985,1873.125
1765549191.4397717,1,0,7871,983.875
1765549191.44378,0,0,12017,1502.125
1765549191.4477737,0,0,17850,2231.250
1765549191.4517791,0,0,19369,2421.125
1765549191.4557714,0,0,15355,1919.375
1765549191.459769,1,0,8166,1020.750
1765549191.4637809,0,0,11776,1472.000
1765549191.4677744,0,0,17753,2219.125
1765549191.4717755,0,0,19327,2415.875
1765549191.475772,0,0,15776,1972.000
1765549191.4797723,1,0,8578,1072.250
1765549191.4837742,0,0,11609,1451.125
1765549191.4877722,0,0,17671,2208.875
1765549191.4917767,0,0,19282,2410.250
1765549191.496141,0,0,15870,1983.750
1765549191.5000784,1,0,8413,1051.625
1765549191.5038145,0,0,11018,1377.250
1765549191.5077727,0,0,17466,2183.250
1765549191.5117714,0,0,19206,2400.750
1765549191.5157597,0,0,16070,2008.750
1765549191.5197568,1,0,8484,1060.500
1765549191.5237954,0,0,10593,1324.125
1765549191.5277622,0,0,17305,2163.125
1765549191.5317678,0,0,19145,2393.125
1765549191.5358026,0,0,16352,2044.000
1765549191.539844,1,0,8701,1087.625
1765549191.543786,0,0,10282,1285.250
1765549191.5477579,0,0,17166,2145.750
1765549191.5517592,0,0,19090,2386.250
1765549191.5557685,0,0,15723,1965.375
1765549191.5597577,1,0,7007,875.875
1765549191.5637708,0,0,8287,1035.875
1765549191.5677674,0,0,16522,2065.250
1765549191.571848,0,0,18926,2365.750
1765549191.5757706,0,0,16636,2079.500
1765549191.579759,1,0,8615,1076.875
1765549191.583759,0,0,9227,1153.375
1765549191.5877545,0,0,16760,2095.000
1765549191.5917645,0,0,18984,2373.000
1765549191.5957618,0,0,17047,2130.875
1765549191.599759,1,0,9184,1148.000
1765549191.6037757,0,0,9333,1166.625
1765549191.60777,0,0,16734,2091.750
1765549191.611787,0,0,18960,2370.000
1765549191.6158357,0,0,17334,2166.750
1765549191.6197886,1,0,9556,1194.500
1765549191.6238062,0,0,9189,1148.625
1765549191.6277533,0,0,16598,2074.750
1765549191.6317625,0,0,18905,2363.125
1765549191.6357732,0,0,17509,2188.625
1765549191.6397717,1,0,9714,1214.250
1765549191.6438315,0,0,8892,1111.500
1765549191.6477814,0,0,16408,2051.000
1765549191.6517777,0,0,18834,2354.250
1765549191.65576,0,0,17709,2213.625
1765549191.659755,1,0,9981,1247.625
1765549191.6637678,1,0,8708,1088.500
1765549191.667754,0,0,16243,2030.375
1765549191.671758,0,0,18772,2346.500
1765549191.675772,0,0,17840,2230.000
1765549191.6797717,1,0,10053,1256.625
1765549191.6837754,1,0,8323,1040.375
1765549191.687774,0,0,18692,2336.500
1765549191.691773,0,0,18014,2251.750
1765549191.6958342,0,0,10350,1293.750
1765549191.6998188,1,0,8250,1031.250
1765549191.7037797,1,0,15874,1984.250
1765549191.707757,0,0,18641,2330.125
1765549191.7117612,0,0,18138,2267.250
1765549191.7157726,0,0,10502,1312.750
1765549191.719771,1,0,7908,988.500
1765549191.7238212,0,0,15591,1948.875
1765549191.7277727,0,0,18550,2318.750
1765549191.7317681,0,0,17781,2222.625
1765549191.7357657,0,0,8815,1101.875
1765549191.739765,1,0,5486,685.750
1765549191.7438133,0,0,14471,1808.875
1765549191.7477922,0,0,18265,2283.125
1765549191.7517812,0,0,16708,2088.500
1765549191.7557573,0,0,4792,599.000
1765549191.7597525,1,0,268,33.500
1765549191.7637715,0,0,11943,1492.875
1765549191.7677693,0,0,17679,2209.875
1765549191.7771978,1,0,9494,1186.750
1765549191.7797837,1,0,5111,638.875
1765549191.7837756,1,0,13978,1747.250
1765549191.7877674,0,0,18256,2282.000
1765549191.7917712,0,0,18548,2318.500
1765549191.7957714,0,0,10634,1329.250
1765549191.7997704,1,0,6038,754.750
1765549191.8037612,1,0,14217,1777.125
1765549191.8077543,0,0,18320,2290.000
1765549191.8117645,0,0,18800,2350.000
1765549191.815773,0,0,11601,1450.125
1765549191.8197672,1,0,6821,852.625
1765549191.8237686,1,0,14358,1794.750
1765549191.827807,0,0,18344,2293.000
1765549191.831777,0,0,18922,2365.250
1765549191.8357725,0,0,12064,1508.000
1765549191.8397653,1,0,6990,873.750
1765549191.8437612,1,0,14199,1774.875
1765549191.8477523,0,0,18282,2285.250
1765549191.8517592,0,0,18992,2374.000
1765549191.8557708,0,0,12482,1560.250
1765549191.8597696,1,0,7130,891.250
1765549191.863772,1,0,14019,1752.375
1765549191.8677654,0,0,18212,2276.500
1765549191.871774,0,0,19036,2379.500
1765549191.8758419,0,0,12855,1606.875
1765549191.879786,1,0,7223,902.875
1765549191.8838131,1,0,13766,1720.750
1765549191.8877802,0,0,18122,2265.250
1765549191.8917701,0,0,19035,2379.375
1765549191.8957675,0,0,12938,1617.250
1765549191.899765,1,0,6944,868.000
1765549191.90377,0,0,13353,1669.125
1765549191.9077652,0,0,17993,2249.125
1765549191.9117732,0,0,18938,2367.250
1765549191.9157553,0,0,12050,1506.250
1765549191.91975,1,0,5250,656.250
1765549191.9237633,1,0,11915,1489.375
1765549191.9277902,0,0,17615,2201.875
1765549191.9317589,0,0,18967,2370.875
1765549191.9357736,0,0,13158,1644.750
1765549191.9397695,1,0,6420,802.500
1765549191.9437697,1,0,12244,1530.500
1765549191.9477663,0,0,17701,2212.625
1765549191.9517694,0,0,19037,2379.625
1765549191.9557745,0,0,13683,1710.375
1765549191.9597678,1,0,6829,853.625
1765549191.9637702,1,0,12079,1509.875
1765549191.9677663,0,0,17646,2205.750
1765549191.971767,0,0,19040,2380.000
1765549191.9758432,0,0,13974,1746.750
1765549191.979829,1,0,6885,860.625
1765549191.98377,1,0,11695,1461.875
1765549191.9877555,0,0,17528,2191.000
1765549191.9917598,0,0,19019,2377.375
1765549191.995769,0,0,14212,1776.500
1765549191.9997697,1,0,6898,862.250
1765549192.0038054,1,0,11217,1402.125
1765549192.0077693,0,0,17385,2173.125
1765549192.0117645,0,0,18992,2374.000
1765549192.0158038,0,0,14618,1827.250
1765549192.0198085,1,0,7201,900.125
1765549192.0237648,1,0,10951,1368.875
1765549192.0277925,0,0,17294,2161.750
1765549192.0317607,0,0,18965,2370.625
1765549192.03577,0,0,14754,1844.250
1765549192.0398343,1,0,7047,880.875
1765549192.0437965,0,0,10333,1291.625
1765549192.0477734,0,0,17099,2137.375
1765549192.0517728,0,0,18845,2355.625
1765549192.05575,0,0,11960,1495.000
1765549192.059748,1,0,1895,236.875
1765549192.0637689,1,0,5447,680.875
1765549192.0677676,0,0,15687,1960.875
1765549192.0717692,0,0,18605,2325.625
1765549192.0757535,0,0,14667,1833.375
1765549192.0797467,1,0,6042,755.250
1765549192.0837667,0,0,8426,1053.250
1765549192.0877664,0,0,16582,2072.750
1765549192.091769,0,0,18872,2359.000
1765549192.0957499,0,0,14838,1854.750
1765549192.0997455,1,0,5804,725.500
1765549192.1037664,1,0,7676,959.500
1765549192.107765,0,0,16329,2041.125
1765549192.111768,0,0,18825,2353.125
1765549192.1157699,0,0,15871,1983.875
1765549192.1197622,1,0,7441,930.125
1765549192.1237655,1,0,8591,1073.875
1765549192.1277628,0,0,16562,2070.250
1765549192.1318078,0,0,18885,2360.625
1765549192.1357656,0,0,16571,2071.375
1765549192.1397662,1,0,8545,1068.125
1765549192.1437652,1,0,9135,1141.875
1765549192.1477628,0,0,16670,2083.750
1765549192.1517658,0,0,18895,2361.875
1765549192.1557703,0,0,16858,2107.250
1765549192.159868,1,0,8865,1108.125
1765549192.1638513,1,0,8960,1120.000
1765549192.1677642,0,0,16535,2066.875
1765549192.1717563,0,0,18837,2354.625
1765549192.1758428,0,0,17068,2133.500
1765549192.1797788,1,0,9030,1128.750
1765549192.1837516,1,0,8646,1080.750
1765549192.1877453,0,0,16346,2043.250
1765549192.1917582,0,0,18766,2345.750
1765549192.1957507,0,0,17221,2152.625
1765549192.1997488,1,0,9111,1138.875
1765549192.203747,1,0,8270,1033.750
1765549192.2077467,0,0,16125,2015.625
1765549192.2117548,0,0,18688,2336.000
1765549192.215769,0,0,17406,2175.750
1765549192.2197664,1,0,9276,1159.500
1765549192.2237544,1,0,7950,993.750
1765549192.2277467,0,0,15909,1988.625
1765549192.2317955,0,0,18614,2326.750
1765549192.2357693,0,0,17614,2201.750
1765549192.239764,1,0,9589,1198.625
1765549192.2437692,1,0,7813,976.625
1765549192.2477627,0,0,15742,1967.750
1765549192.251765,0,0,18556,2319.500
1765549192.2557642,0,0,17780,2222.500
1765549192.2597628,1,0,9790,1223.750
1765549192.263765,1,0,7574,946.750
1765549192.2677624,0,0,15534,1941.750
1765549192.2717648,0,0,18486,2310.750
1765549192.2757638,0,0,17531,2191.375
1765549192.2797656,1,0,8557,1069.625
1765549192.2837684,1,0,5712,714.000
1765549192.287764,0,0,14676,1834.500
1765549192.2917652,0,0,18264,2283.000
1765549192.295765,0,0,17965,2245.625
1765549192.2997644,1,0,9895,1236.875
1765549192.3037548,1,0,6725,840.625
1765549192.3077521,0,0,14929,1866.125
1765549192.3117669,0,0,18330,2291.250
1765549192.3157792,0,0,18208,2276.000
1765549192.3197694,1,0,10446,1305.750
1765549192.3237596,1,0,6911,863.875
1765549192.3277485,0,0,14848,1856.000
1765549192.3317556,0,0,18298,2287.250
1765549192.3357642,0,0,10888,1361.000
1765549192.33976,1,0,6974,871.750
1765549192.3437514,1,0,14685,1835.625
1765549192.347746,0,0,18241,2280.125
1765549192.351756,0,0,18494,2311.750
1765549192.355761,0,0,11292,1411.500
1765549192.3597598,1,0,7032,879.000
1765549192.3637667,1,0,14517,1814.625
1765549192.367761,0,0,18180,2272.500
1765549192.3717651,0,0,18559,2319.875
1765549192.3758452,0,0,11447,1430.875
1765549192.3797739,1,0,6776,847.000
1765549192.383748,1,0,14182,1772.750
1765549192.387747,0,0,18077,2259.625
1765549192.3917544,0,0,18630,2328.750
1765549192.39576,0,0,11780,1472.500
1765549192.399759,1,0,6759,844.875
1765549192.4038389,0,0,13928,1741.000
1765549192.4078193,0,0,17996,2249.500
1765549192.4118526,0,0,18291,2286.375
1765549192.4157677,0,0,9371,1171.375
1765549192.4197423,1,1,3144,393.000
1765549192.423767,0,0,11740,1467.500
1765549192.4277658,0,0,17445,2180.625
1765549192.431802,0,0,17833,2229.125
1765549192.4357505,0,0,6905,863.125
1765549192.4397438,1,0,-528,-66.000
1765549192.443749,1,0,9074,1134.250
1765549192.4477425,0,0,16824,2103.000
1765549192.4517457,0,0,18399,2299.875
1765549192.455748,0,0,10413,1301.625
1765549192.4597442,1,1,3403,425.375
1765549192.4637635,1,0,11108,1388.500
1765549192.4677608,0,0,17415,2176.875
1765549192.471766,0,0,18841,2355.125
1765549192.4757652,0,0,12332,1541.500
1765549192.4797614,1,1,5528,691.000
1765549192.483763,1,0,12021,1502.625
1765549192.487759,0,0,17663,2207.875
1765549192.4917612,0,0,19007,2375.875
1765549192.4961276,0,0,13299,1662.375
1765549192.4999104,1,0,6560,820.000
1765549192.5037875,1,0,12291,1536.375
1765549192.5077565,0,0,17720,2215.000
1765549192.5117574,0,0,19058,2382.250
1765549192.5157506,0,0,13903,1737.875
1765549192.5197434,1,1,7147,893.375
1765549192.523746,1,0,12275,1534.375
1765549192.5277457,0,0,17691,2211.375
1765549192.5317495,0,0,19051,2381.375
1765549192.5357585,0,0,14164,1770.500
1765549192.5397556,1,1,7210,901.250
1765549192.5437586,1,0,11900,1487.500
1765549192.5477517,0,0,17564,2195.500
1765549192.5517576,0,0,19015,2376.875
1765549192.5558822,0,0,14489,1811.125
1765549192.5597596,1,1,7390,923.750
1765549192.5637655,1,0,11553,1444.125
1765549192.5677593,0,0,17443,2180.375
1765549192.5717595,0,0,18970,2371.250
1765549192.575836,0,0,14598,1824.750
1765549192.5797694,1,1,7220,902.500
1765549192.583752,1,0,10966,1370.750
1765549192.5877426,0,0,17254,2156.750
1765549192.5917444,0,0,18912,2364.000
1765549192.5957413,0,0,14951,1868.875
1765549192.599743,1,1,7487,935.875
1765549192.6037414,1,0,10690,1336.250
1765549192.607742,0,0,17148,2143.500
1765549192.6117506,0,0,18872,2359.000
1765549192.6157603,0,0,15235,1904.375
1765549192.6197574,1,1,7623,952.875
1765549192.623761,1,0,10289,1286.125
1765549192.6277583,0,0,17001,2125.125
1765549192.6317632,0,0,18817,2352.125
1765549192.6358004,0,0,14736,1842.000
1765549192.6397557,1,0,6310,788.750
1765549192.643764,1,0,8710,1088.750
1765549192.647761,0,0,16516,2064.500
1765549192.6517627,0,0,18696,2337.000
1765549192.6557603,0,0,15634,1954.250
1765549192.6597571,1,1,7635,954.375
1765549192.6637576,1,0,9280,1160.000
1765549192.667759,0,0,16644,2080.500
1765549192.6717627,0,0,18726,2340.750
1765549192.6757607,0,0,15957,1994.625
1765549192.679758,1,1,7906,988.250
1765549192.6837606,1,0,9064,1133.000
1765549192.6877573,0,0,16533,2066.625
1765549192.6917603,0,0,18686,2335.750
1765549192.69576,0,0,16317,2039.625
1765549192.6997569,1,1,8321,1040.125
1765549192.7037444,1,0,8947,1118.375
1765549192.7077425,0,0,16436,2054.500
1765549192.7117543,0,0,18647,2330.875
1765549192.7157612,0,0,16563,2070.375
1765549192.719755,1,1,8527,1065.875
1765549192.723759,1,0,8664,1083.000
1765549192.7277567,0,0,16278,2034.750
1765549192.7317622,0,0,18593,2324.125
1765549192.7357726,0,0,16846,2105.750
1765549192.7397563,1,1,8872,1109.000
1765549192.7437577,1,0,8555,1069.375
1765549192.747759,0,0,16168,2021.000
1765549192.7517688,0,0,18549,2318.625
1765549192.755746,0,0,17010,2126.250
1765549192.7597408,1,1,8952,1119.000
1765549192.7637556,1,0,8136,1017.000
1765549192.767757,0,0,15929,1991.125
1765549192.7717612,0,0,18472,2309.000
1765549192.7811131,1,0,8017,1002.125
1765549192.7837617,1,0,8017,1002.125
1765549192.787742,0,0,15791,1973.875
1765549192.7917507,0,0,18423,2302.875
1765549192.7957606,0,0,17401,2175.125
1765549192.7997591,1,1,9402,1175.250
1765549192.803751,1,0,7683,960.375
1765549192.8077385,0,0,15563,1945.375
1765549192.8117478,0,0,18352,2294.000
1765549192.8157604,0,0,17214,2151.750
1765549192.8197548,1,1,8395,1049.375
1765549192.823758,1,0,6088,761.000
1765549192.8277533,0,0,14844,1855.500
1765549192.8317552,0,0,18168,2271.000
1765549192.835801,0,0,17572,2196.500
1765549192.8397567,1,1,9309,1163.625
1765549192.8437476,1,0,6613,826.625
1765549192.8477407,0,0,14924,1865.500
1765549192.8517451,0,0,18192,2274.000
1765549192.8557565,0,0,17856,2232.000
1765549192.859755,1,1,9942,1242.750
1765549192.8637545,1,0,6837,854.625
1765549192.867755,0,0,14861,1857.625
1765549192.871758,0,0,18171,2271.375
1765549192.8757539,0,0,18025,2253.125
1765549192.8797526,1,1,10292,1286.500
1765549192.8837595,1,0,6792,849.000
1765549192.887756,0,0,14687,1835.875
1765549192.8917556,0,0,18117,2264.625
1765549192.8957522,0,0,18179,2272.375
1765549192.8997521,1,1,10697,1337.125
1765549192.9037414,1,0,6812,851.500
1765549192.9077396,0,0,14514,1814.250
1765549192.9117436,0,0,18061,2257.625
1765549192.915756,0,0,18295,2286.875
1765549192.9197524,1,1,11022,1377.750
1765549192.92376,1,0,6759,844.875
1765549192.9277565,0,0,14300,1787.500
1765549192.9317584,0,0,17993,2249.125
1765549192.9357522,0,0,18394,2299.250
1765549192.939852,1,1,11372,1421.500
1765549192.9437976,1,0,6758,844.750
1765549192.9477985,0,0,14089,1761.125
1765549192.951804,0,0,17927,2240.875
1765549192.9557998,0,0,18484,2310.500
1765549192.9597943,1,1,11774,1471.750
1765549192.9637985,1,0,6831,853.875
1765549192.967799,0,0,13886,1735.750
1765549192.9718034,0,0,17860,2232.500
1765549192.975797,0,0,18479,2309.875
1765549192.9798753,1,1,6090,761.250
1765549192.983811,1,0,13245,1655.625
1765549192.9877942,0,0,17685,2210.625
1765549192.9918208,0,0,18426,2303.250
1765549192.9958024,0,0,11127,1390.875
1765549192.9997964,1,1,5075,634.375
1765549193.0037875,1,0,12398,1549.750
1765549193.0077767,0,0,17472,2184.000
1765549193.011784,0,0,18549,2318.625
1765549193.0157998,0,0,12232,1529.000
1765549193.0197964,1,1,6145,768.125
1765549193.02378,1,0,12675,1584.375
1765549193.0277836,0,0,17546,2193.250
1765549193.0317905,0,0,18653,2331.625
1765549193.035801,0,0,12855,1606.875
1765549193.0398972,1,1,6629,828.625
1765549193.0437603,1,0,12630,1578.750
1765549193.0477533,0,0,17526,2190.750
1765549193.0517576,0,0,18700,2337.500
1765549193.0557566,0,0,13409,1676.125
1765549193.0597522,1,1,7059,882.375
1765549193.0637524,1,0,12510,1563.750
1765549193.067751,0,0,17480,2185.000
1765549193.071759,0,0,18703,2337.875
1765549193.0757744,0,0,13639,1704.875
1765549193.0797596,1,1,7047,880.875
1765549193.0837462,1,0,12109,1513.625
1765549193.0877361,0,0,17360,2170.000
1765549193.0917397,0,0,18686,2335.750
1765549193.0957382,0,0,13981,1747.625
1765549193.0997357,1,1,7221,902.625
1765549193.103737,1,0,11804,1475.500
1765549193.1077332,0,0,17263,2157.875
1765549193.1117404,0,0,18662,2332.750
1765549193.1157541,0,0,14168,1771.000
1765549193.1197512,1,1,7177,897.125
1765549193.123757,1,0,11328,1416.000
1765549193.127749,0,0,17119,2139.875
1765549193.1317534,0,0,18626,2328.250
1765549193.135751,0,0,14428,1803.500
1765549193.1397643,1,1,7261,907.625
1765549193.1437516,1,0,10945,1368.125
1765549193.1477475,0,0,16998,2124.750
1765549193.1517508,0,0,18586,2323.250
1765549193.1557486,0,0,14181,1772.625
1765549193.1597514,1,1,6437,804.625
1765549193.1637545,1,0,9826,1228.250
1765549193.1677473,0,0,16676,2084.500
1765549193.17175,0,0,18510,2313.750
1765549193.1757522,0,0,14283,1785.375
1765549193.1798193,1,1,6214,776.750
1765549193.1837518,1,0,9133,1141.625
1765549193.1877353,0,0,16468,2058.500
1765549193.1917431,0,0,18476,2309.500
1765549193.195751,0,0,15293,1911.625
1765549193.199748,1,1,7707,963.375
1765549193.2037442,1,0,9860,1232.500
1765549193.2077374,0,0,16651,2081.375
1765549193.2117453,0,0,18521,2315.125
1765549193.215752,0,0,15865,1983.125
1765549193.2197495,1,1,8467,1058.375
1765549193.2237492,1,0,10031,1253.875
1765549193.2277534,0,0,16658,2082.250
1765549193.2317562,0,0,18507,2313.375
1765549193.2357535,0,0,16075,2009.375
1765549193.2397487,1,1,8579,1072.375
1765549193.2437565,1,0,9683,1210.375
1765549193.2477508,0,0,16505,2063.125
1765549193.251754,0,0,18450,2306.250
1765549193.2557514,0,0,16310,2038.750
1765549193.2597506,1,1,8787,1098.375
1765549193.2637432,1,0,9401,1175.125
1765549193.2677376,0,0,16359,2044.875
1765549193.271748,0,0,18395,2299.375
1765549193.2757542,0,0,16570,2071.250
1765549193.2797482,1,1,9077,1134.625
1765549193.2837417,1,0,9243,1155.375
1765549193.2877352,0,0,16245,2030.625
1765549193.2917414,0,0,18348,2293.500
1765549193.2957528,0,0,16931,2116.375
1765549193.299745,1,1,9699,1212.375
1765549193.3037457,1,0,9391,1173.875
1765549193.3077471,0,0,16215,2026.875
1765549193.3117518,0,0,18319,2289.875
1765549193.3157506,0,0,17203,2150.375
1765549193.3197472,1,1,10159,1269.875
1765549193.3237512,1,0,9438,1179.750
1765549193.3277445,0,0,16145,2018.125
1765549193.3317506,0,0,18276,2284.500
1765549193.3357463,0,0,17127,2140.875
1765549193.3397472,1,1,9617,1202.125
1765549193.3437495,1,0,8484,1060.500
1765549193.3477309,0,0,15736,1967.000
1765549193.351739,0,0,18152,2269.000
1765549193.3557506,0,0,17420,2177.500
1765549193.3597488,1,1,10319,1289.875
1765549193.3637502,1,0,8767,1095.875
1765549193.367746,0,0,15724,1965.500
1765549193.37175,0,0,18130,2266.250
1765549193.3757482,0,0,17570,2196.250
1765549193.3798184,1,1,10527,1315.875
1765549193.3837476,1,0,8559,1069.875
1765549193.3877325,0,0,15532,1941.500
1765549193.3917367,0,0,18058,2257.250
1765549193.3957493,0,0,17681,2210.125
1765549193.3997495,1,1,10717,1339.625
1765549193.4037426,1,0,8378,1047.250
1765549193.4077404,0,0,15352,1919.000
1765549193.411736,0,0,17993,2249.125
1765549193.4157357,0,0,17829,2228.625
1765549193.4197333,1,1,11107,1388.375
1765549193.4237475,1,0,8402,1050.250
1765549193.4277449,0,0,15230,1903.750
1765549193.431748,0,0,17941,2242.625
1765549193.4357448,0,0,17919,2239.875
1765549193.4397328,1,1,11317,1414.625
1765549193.4437835,1,0,8264,1033.000
1765549193.4477458,0,0,15039,1879.875
1765549193.451746,0,0,17872,2234.000
1765549193.4557457,0,0,18013,2251.625
1765549193.4597423,1,1,11636,1454.500
1765549193.4637456,1,0,8264,1033.000
1765549193.4677436,0,0,14896,1862.000
1765549193.4717457,0,0,17815,2226.875
1765549193.4757445,0,0,18088,2261.000
1765549193.479744,1,1,11902,1487.750
1765549193.4837482,1,0,8169,1021.125
1765549193.4877443,0,0,14674,1834.250
1765549193.4917476,0,0,17736,2217.000
1765549193.4961019,0,0,18139,2267.375
1765549193.4999034,1,1,12136,1517.000
1765549193.5037715,1,0,8058,1007.250
1765549193.507748,0,0,14446,1805.750
1765549193.5117478,0,0,17657,2207.125
1765549193.5157342,0,0,18001,2250.125
1765549193.5197284,1,1,11059,1382.375
1765549193.5237322,1,0,6231,778.875
1765549193.5277357,0,0,13385,1673.125
1765549193.5317397,0,0,17378,2172.250
1765549193.5357442,0,0,18118,2264.750
1765549193.539743,1,1,12078,1509.750
1765549193.5437841,1,0,7120,890.000
1765549193.5477443,0,0,13580,1697.500
1765549193.551745,0,0,17429,2178.625
1765549193.5558841,0,0,18204,2275.500
1765549193.5597315,1,1,12449,1556.125
1765549193.563729,1,0,7225,903.125
1765549193.5677319,0,0,13391,1673.875
1765549193.5717318,0,0,17372,2171.500
1765549193.5757318,0,0,18247,2280.875
1765549193.5798318,1,1,12844,1605.500
1765549193.5837548,1,0,7377,922.125
1765549193.5877347,0,0,13190,1648.750
1765549193.5917375,0,0,17310,2163.750
1765549193.5957353,0,0,18268,2283.500
1765549193.5997286,1,1,13155,1644.375
1765549193.603728,1,0,7467,933.375
1765549193.6077275,0,0,12954,1619.250
1765549193.6117373,0,0,17237,2154.625
1765549193.6157494,0,0,18272,2284.000
1765549193.6197438,1,1,13367,1670.875
1765549193.623745,1,0,7408,926.000
1765549193.6277432,0,0,17133,2141.625
1765549193.6317475,0,0,18264,2283.000
1765549193.6357493,0,0,13665,1708.125
1765549193.639748,1,1,7507,938.375
1765549193.6437469,1,0,12301,1537.625
1765549193.6477423,0,0,17047,2130.875
1765549193.6517472,0,0,18254,2281.750
1765549193.6557488,0,0,13990,1748.750
1765549193.6597455,1,1,7696,962.000
1765549193.6637533,1,0,12051,1506.375
1765549193.6677437,0,0,16972,2121.500
1765549193.6717443,0,0,18238,2279.750
1765549193.6757495,0,0,14228,1778.500
1765549193.6797447,1,1,7736,967.000
1765549193.683749,1,0,11688,1461.000
1765549193.6877406,0,0,16863,2107.875
1765549193.6917439,0,0,18193,2274.125
1765549193.6957433,0,0,13532,1691.500
1765549193.699745,1,1,6199,774.875
1765549193.7037432,1,0,10121,1265.125
1765549193.7077417,0,0,16440,2055.000
1765549193.7117448,0,0,18115,2264.375
1765549193.7157469,0,0,14524,1815.500
1765549193.7197425,1,1,7540,942.500
1765549193.7237475,1,0,10652,1331.500
1765549193.7277398,0,0,16579,2072.375
1765549193.7317498,0,0,18156,2269.500
1765549193.735746,0,0,14850,1856.250
1765549193.739743,1,1,7743,967.875
1765549193.74373,1,0,10352,1294.000
1765549193.7477946,0,0,16478,2059.750
1765549193.7517743,0,0,18129,2266.125
1765549193.7557847,0,0,15115,1889.375
1765549193.7597876,1,1,7911,988.875
1765549193.7637775,1,0,10042,1255.250
1765549193.7677689,0,0,16367,2045.875
1765549193.7717748,0,0,18097,2262.125
1765549193.7757888,0,0,15481,1935.125
1765549193.7864647,0,0,9902,1237.750
1765549193.7883584,0,0,16296,2037.000
1765549193.7917998,0,0,18072,2259.000
1765549193.7957752,0,0,15689,1961.125
1765549193.7997658,1,1,8396,1049.500
1765549193.8037846,1,0,9546,1193.250
1765549193.8077888,0,0,16151,2018.875
1765549193.811795,0,0,18029,2253.625
1765549193.8157694,0,0,15822,1977.750
1765549193.8197677,1,1,8322,1040.250
1765549193.8237891,1,0,9035,1129.375
1765549193.8277886,0,0,15952,1994.000
1765549193.831796,0,0,17974,2246.750
1765549193.8357942,0,0,16114,2014.250
1765549193.8397825,1,1,8662,1082.750
1765549193.8437762,1,0,8901,1112.625
1765549193.8478491,0,0,15859,1982.375
1765549193.8517392,0,0,17945,2243.125
1765549193.8557472,0,0,16251,2031.375
1765549193.8597403,1,1,8635,1079.375
1765549193.8637385,1,0,8444,1055.500
1765549193.867739,0,0,15655,1956.875
1765549193.8717463,0,0,17890,2236.250
1765549193.875745,0,0,16101,2012.625
1765549193.879738,1,1,7830,978.750
1765549193.8837428,1,0,7198,899.750
1765549193.8877425,0,0,15175,1896.875
1765549193.891746,0,0,17776,2222.000
1765549193.8957417,0,0,16505,2063.125
1765549193.899741,1,1,8569,1071.125
1765549193.9037426,1,0,7476,934.500
1765549193.9077435,0,0,15198,1899.750
1765549193.9117558,0,0,17790,2223.750
1765549193.915732,0,0,16680,2085.000
1765549193.919726,1,1,8659,1082.375
1765549193.9237368,1,0,7084,885.500
1765549193.927723,0,0,14958,1869.750
1765549193.931728,0,0,17735,2216.875
1765549193.935743,0,0,16921,2115.125
1765549193.93974,1,1,9035,1129.375
1765549193.943741,1,0,7030,878.750
1765549193.9477556,0,0,14842,1855.250
1765549193.9517467,0,0,17710,2213.750
1765549193.9557447,0,0,17154,2144.250
1765549193.9597437,1,1,9465,1183.125
1765549193.9637437,1,0,7058,882.250
1765549193.9677382,0,0,14740,1842.500
1765549193.9717424,0,0,17685,2210.625
1765549193.9757447,0,0,17316,2164.500
1765549193.979743,1,1,9715,1214.375
1765549193.9838188,1,0,6897,862.125
1765549193.9877508,0,0,14550,1818.750
1765549193.9917483,0,0,17636,2204.500
1765549193.9957314,0,0,16480,2060.000
1765549193.9997265,1,1,6144,768.000
1765549194.0037446,1,0,2243,280.375
1765549194.007741,0,0,12430,1553.750
1765549194.0117445,0,0,17128,2141.000
1765549194.0157242,0,0,17304,2163.000
1765549194.019725,1,1,9157,1144.625
1765549194.0237465,1,0,5223,652.875
1765549194.0277429,0,0,13570,1696.250
1765549194.0317452,0,0,17462,2182.750
1765549194.0357404,0,0,17665,2208.125
1765549194.0397413,1,1,9991,1248.875
1765549194.0437462,1,0,5736,717.000
1765549194.0477793,0,0,13607,1700.875
1765549194.0517423,0,0,17482,2185.250
1765549194.0557408,0,0,17637,2204.625
1765549194.0597408,1,1,9355,1169.375
1765549194.0637403,1,0,4477,559.625
1765549194.0677404,0,0,12808,1601.000
1765549194.0717428,0,0,17290,2161.250
1765549194.0757399,0,0,17884,2235.500
1765549194.0797355,1,1,10526,1315.750
1765549194.0837426,1,0,5488,686.000
1765549194.0877402,0,0,13069,1633.625
1765549194.091743,0,0,17370,2171.250
1765549194.0957215,0,0,18040,2255.000
1765549194.09972,1,1,11020,1377.500
1765549194.1037364,1,0,5676,709.500
1765549194.10774,0,0,12913,1614.125
1765549194.1117408,0,0,17333,2166.625
1765549194.1157417,0,0,18153,2269.125
1765549194.119738,1,1,11588,1448.500
1765549194.123743,1,0,6003,750.375
1765549194.1277392,0,0,12798,1599.750
1765549194.1317403,0,0,17300,2162.500
1765549194.135741,0,0,18223,2277.875
1765549194.1397338,1,1,11977,1497.125
1765549194.1437337,1,0,6122,765.250
1765549194.147737,0,0,12565,1570.625
1765549194.1517935,0,0,17235,2154.375
1765549194.1557891,0,0,18263,2282.875
1765549194.1597812,1,1,12298,1537.250
1765549194.1637843,1,0,6163,770.375
1765549194.1677806,0,0,12253,1531.625
1765549194.171783,0,0,17149,2143.625
1765549194.1757834,0,0,18288,2286.000
1765549194.1797776,1,1,12594,1574.250
1765549194.183851,1,0,6198,774.750
1765549194.1877925,0,0,11914,1489.250
1765549194.1917903,0,0,17056,2132.000
1765549194.1957686,0,0,18294,2286.750
1765549194.1997619,1,1,12822,1602.750
1765549194.2037828,1,0,6156,769.500
1765549194.2077785,0,0,11494,1436.750
1765549194.2117844,0,0,16942,2117.750
1765549194.2157662,0,0,18305,2288.125
1765549194.2197628,1,1,13315,1664.375
1765549194.2237837,1,0,6545,818.125
1765549194.2277813,0,0,11333,1416.625
1765549194.2317874,0,0,16892,2111.500
1765549194.2357876,0,0,18294,2286.750
1765549194.2397842,1,1,13132,1641.500
1765549194.2437863,1,0,5859,732.375
1765549194.2477796,0,0,10401,1300.125
1765549194.2518022,0,0,16641,2080.125
1765549194.2557442,0,0,18263,2282.875
1765549194.2597387,1,1,13790,1723.750
1765549194.2637386,1,0,6552,819.000
1765549194.2677357,0,0,10424,1303.000
1765549194.27174,0,0,16639,2079.875
1765549194.2757387,0,0,14271,1783.875
1765549194.2797382,1,1,7002,875.250
1765549194.2837434,1,0,10324,1290.500
1765549194.2877343,0,0,16597,2074.625
1765549194.2917364,0,0,18267,2283.375
1765549194.2957406,0,0,14459,1807.375
1765549194.2997386,1,1,6956,869.500
1765549194.3037267,1,0,9815,1226.875
1765549194.3077185,0,0,16435,2054.375
1765549194.3117309,0,0,18225,2278.125
1765549194.3157408,0,0,14789,1848.625
1765549194.3197396,1,0,7174,896.750
1765549194.323739,1,0,9507,1188.375
1765549194.3277378,0,0,16322,2040.250
1765549194.331738,0,0,18193,2274.125
1765549194.335737,0,0,14960,1870.000
1765549194.3397357,1,0,7126,890.750
1765549194.3437276,1,0,8978,1122.250
1765549194.3477209,0,0,16135,2016.875
1765549194.3517342,0,0,18144,2268.000
1765549194.3557527,0,0,15314,1914.250
1765549194.359739,1,0,7446,930.750
1765549194.3637307,1,0,8758,1094.750
1765549194.367719,0,0,16032,2004.000
1765549194.3717256,0,0,18116,2264.500
1765549194.375738,0,0,15569,1946.125
1765549194.3797336,1,0,7605,950.625
1765549194.3837657,1,0,8435,1054.375
1765549194.387725,0,0,15888,1986.000
1765549194.3917334,0,0,18078,2259.750
1765549194.3957367,0,0,15842,1980.250
1765549194.3997338,1,0,7816,977.000
1765549194.4037426,1,0,8152,1019.000
1765549194.4077363,0,0,15746,1968.250
1765549194.4117417,0,0,18041,2255.125
1765549194.415748,0,0,15664,1958.000
1765549194.4197347,1,0,6940,867.500
1765549194.4237237,1,0,6850,856.250
1765549194.4277203,0,0,15269,1908.625
1765549194.4317293,0,0,17928,2241.000
1765549194.4357178,0,0,16256,2032.000
1765549194.439716,1,0,8047,1005.875
1765549194.4437304,1,0,7404,925.500
1765549194.4477367,0,0,15369,1921.125
1765549194.451751,0,0,17960,2245.000
1765549194.4557252,0,0,16475,2059.375
1765549194.4597178,1,0,8189,1023.625
1765549194.463734,1,0,7106,888.250
1765549194.4677372,0,0,15187,1898.375
1765549194.4717386,0,0,17915,2239.375
1765549194.4757395,0,0,16744,2093.000
1765549194.4797328,1,0,8567,1070.875
1765549194.4837365,1,0,7027,878.375
1765549194.4877398,0,0,15064,1883.000
1765549194.491739,0,0,17883,2235.375
1765549194.4961023,0,0,17029,2128.625
1765549194.4998875,1,0,9096,1137.000
1765549194.503762,1,0,7127,890.875
1765549194.5077343,0,0,14983,1872.875
1765549194.511734,0,0,17859,2232.375
1765549194.5157242,0,0,17235,2154.375
1765549194.519719,1,0,9409,1176.125
1765549194.5237212,1,0,6985,873.125
1765549194.5277228,0,0,14805,1850.625
1765549194.5317297,0,0,17807,2225.875
1765549194.5357344,0,0,17371,2171.375
1765549194.5397341,1,0,9576,1197.000
1765549194.5437372,1,0,6719,839.875
1765549194.5477307,0,0,14566,1820.750
1765549194.5517328,0,0,17740,2217.500
1765549194.5557363,0,0,17517,2189.625
1765549194.5597403,1,0,9832,1229.000
1765549194.5637386,1,0,6546,818.250
1765549194.5677295,0,0,14346,1793.250
1765549194.5717332,0,0,17679,2209.875
1765549194.5757458,0,0,17589,2198.625
1765549194.5797331,1,0,9817,1227.125
1765549194.583815,1,0,6063,757.875
1765549194.587744,0,0,13975,1746.875
1765549194.5917506,0,0,17581,2197.625
1765549194.5957196,0,0,17564,2195.500
1765549194.5997174,1,0,9367,1170.875
1765549194.6037378,1,0,5039,629.875
1765549194.607742,0,0,13336,1667.000
1765549194.6117349,0,0,17425,2178.125
1765549194.6157157,0,0,17796,2224.500
1765549194.6197166,1,0,10291,1286.375
1765549194.6237235,1,0,5696,712.000
1765549194.6277192,0,0,13423,1677.875
1765549194.6317265,0,0,17457,2182.125
1765549194.6357358,0,0,17967,2245.875
1765549194.6397452,1,0,10854,1356.750
1765549194.6437366,1,0,5958,744.750
1765549194.6477304,0,0,13325,1665.625
1765549194.6517339,0,0,17431,2178.875
1765549194.6557453,0,0,18063,2257.875
1765549194.659736,1,0,11186,1398.250
1765549194.6637387,1,0,5950,743.750
1765549194.6677165,0,0,13069,1633.625
1765549194.6717217,0,0,17362,2170.250
1765549194.6757317,0,0,18143,2267.875
1765549194.6797416,1,0,11580,1447.500
1765549194.683723,1,0,6042,755.250
1765549194.6877143,0,0,12850,1606.250
1765549194.6917279,0,0,17302,2162.750
1765549194.6957347,0,0,18184,2273.000
1765549194.699732,1,0,11735,1466.875
1765549194.7037332,1,0,5835,729.375
1765549194.7077334,0,0,12429,1553.625
1765549194.7117367,0,0,17191,2148.875
1765549194.7157369,0,0,18224,2278.000
1765549194.719729,1,0,12090,1511.250
1765549194.7237344,1,0,5923,740.375
1765549194.7277324,0,0,12152,1519.000
1765549194.731732,0,0,17118,2139.750
1765549194.7357337,0,0,18271,2283.875
1765549194.739728,1,0,12592,1574.000
1765549194.743731,1,0,6256,782.000
1765549194.7477317,0,0,11985,1498.125
1765549194.7517338,0,0,17071,2133.875
1765549194.7557352,0,0,18295,2286.875
1765549194.7597287,1,0,12868,1608.500
1765549194.7637331,1,0,6268,783.500
1765549194.7677302,0,0,11612,1451.500
1765549194.7717333,0,0,16968,2121.000
1765549194.7757325,0,0,18260,2282.500
1765549194.779728,1,0,12397,1549.625
1765549194.7891054,0,0,16665,2083.125
1765549194.791746,0,0,16665,2083.125
1765549194.7957256,0,0,18251,2281.375
1765549194.7997172,1,0,13339,1667.375
1765549194.8037336,1,0,6251,781.375
1765549194.8077312,0,0,10752,1344.000
1765549194.8117356,0,0,16748,2093.500
1765549194.8157184,0,0,18302,2287.750
1765549194.8197145,1,0,13881,1735.125
1765549194.8237333,1,0,6751,843.875
1765549194.8277287,0,0,10639,1329.875
1765549194.831732,0,0,16707,2088.375
1765549194.8357332,0,0,18299,2287.375
1765549194.8397336,1,0,14156,1769.500
1765549194.84372,1,0,6837,854.625
1765549194.847713,0,0,10253,1281.625
1765549194.8517194,0,0,16586,2073.250
1765549194.8557339,0,0,18270,2283.750
1765549194.8597302,1,0,14516,1814.500
1765549194.8637285,1,0,7115,889.375
1765549194.8677268,0,0,9983,1247.875
1765549194.871732,0,0,16489,2061.125
1765549194.875732,0,0,18242,2280.250
1765549194.8797286,1,0,14719,1839.875
1765549194.8837297,1,0,7097,887.125
1765549194.887727,0,0,9500,1187.500
1765549194.8917308,0,0,16326,2040.750
1765549194.8957274,0,0,18199,2274.875
1765549194.899729,1,0,15092,1886.500
1765549194.9037294,1,0,7453,931.625
1765549194.9077272,0,0,9322,1165.250
1765549194.9117277,0,0,16244,2030.500
1765549194.9157295,0,0,18173,2271.625
1765549194.9197328,1,0,7832,979.000
1765549194.923741,1,0,9157,1144.625
1765549194.9277327,0,0,16151,2018.875
1765549194.9317305,0,0,18141,2267.625
1765549194.9357114,0,0,15789,1973.625
1765549194.9397123,1,0,8165,1020.625
1765549194.943725,1,0,9004,1125.500
1765549194.947712,0,0,16056,2007.000
1765549194.9517143,0,0,18107,2263.375
1765549194.9557729,0,0,15404,1925.500
1765549194.9597707,1,0,6872,859.000
1765549194.9637752,1,0,7331,916.375
1765549194.9677744,0,0,15481,1935.125
1765549194.9717774,0,0,17965,2245.625
1765549194.9757729,0,0,15965,1995.625
1765549194.9797707,1,0,7810,976.250
1765549194.9837754,1,0,7709,963.625
1765549194.9878545,0,0,15540,1942.500
1765549194.9917958,0,0,17986,2248.250
1765549194.9957569,0,0,16316,2039.500
1765549194.9997528,1,0,8271,1033.875
1765549195.0037694,1,0,7707,963.375
1765549195.0077734,0,0,15467,1933.375
1765549195.0117824,0,0,17967,2245.875
1765549195.0157533,0,0,16529,2066.125
1765549195.0197525,1,0,8442,1055.250
1765549195.023773,1,0,7427,928.375
1765549195.027777,0,0,15289,1911.125
1765549195.0317807,0,0,17918,2239.750
1765549195.035778,0,0,16839,2104.875
1765549195.0397682,1,0,8980,1122.500
1765549195.0437732,1,0,7521,940.125
1765549195.0477748,0,0,15222,1902.750
1765549195.0517778,0,0,17897,2237.125
1765549195.0558555,0,0,17034,2129.250
1765549195.0597272,1,0,9231,1153.875
1765549195.0637252,1,0,7347,918.375
1765549195.0677233,0,0,15055,1881.875
1765549195.0717342,0,0,17846,2230.750
1765549195.07573,0,0,17242,2155.250
1765549195.0797257,0,0,9600,1200.000
1765549195.0837276,1,0,7300,912.500
1765549195.0877259,0,0,14917,1864.625
1765549195.09173,0,0,17804,2225.500
1765549195.0957108,0,0,17413,2176.625
1765549195.09971,0,0,9915,1239.375
1765549195.1037276,1,0,7212,901.500
1765549195.1077285,0,0,14755,1844.375
1765549195.1117415,0,0,17750,2218.750
1765549195.1157117,0,0,17538,2192.250
1765549195.1197102,0,0,10130,1266.250
1765549195.1237223,1,0,7013,876.625
1765549195.1277251,0,0,14525,1815.625
1765549195.1317275,0,0,17682,2210.250
1765549195.135711,0,0,17409,2176.125
1765549195.1397092,0,0,9234,1154.250
1765549195.1437306,1,0,5485,685.625
1765549195.1477232,0,0,13730,1716.250
1765549195.1517386,0,0,17481,2185.125
1765549195.155745,0,0,17707,2213.375
1765549195.1597297,0,0,10430,1303.750
1765549195.163732,1,0,6461,807.625
1765549195.1677356,0,0,13976,1747.000
1765549195.1717253,0,0,17548,2193.500
1765549195.175724,0,0,17857,2232.125
1765549195.1797254,0,0,10783,1347.875
1765549195.1837428,1,0,6457,807.125
1765549195.1877925,0,0,13798,1724.750
1765549195.1917422,0,0,17497,2187.125
1765549195.1957114,0,0,17965,2245.625
1765549195.199724,0,0,11193,1399.125
1765549195.2037263,1,0,6544,818.000
1765549195.2077382,0,0,13613,1701.625
1765549195.2117276,0,0,17443,2180.375
1765549195.2157109,0,0,18093,2261.625
1765549195.219709,0,0,11872,1484.000
1765549195.2237296,1,0,7021,877.625
1765549195.227728,0,0,13627,1703.375
1765549195.2317276,0,0,17436,2179.500
1765549195.235726,0,0,18169,2271.125
1765549195.2397234,0,0,12326,1540.750
1765549195.2437296,1,0,7237,904.625
1765549195.2477245,0,0,13477,1684.625
1765549195.2517257,0,0,17382,2172.750
1765549195.2557635,0,0,18260,2282.500
1765549195.2597225,0,0,13295,1661.875
1765549195.263728,1,0,8223,1027.875
1765549195.2677243,0,0,13735,1716.875
1765549195.2717307,0,0,17425,2178.125
1765549195.2757258,0,0,18310,2288.750
1765549195.2797205,0,0,14023,1752.875
1765549195.2837281,1,0,8972,1121.500
1765549195.2877247,0,0,13876,1734.500
1765549195.2917278,0,0,17424,2178.000
1765549195.295721,0,0,18298,2287.250
1765549195.299719,0,0,14291,1786.375
1765549195.3037288,1,0,9082,1135.250
1765549195.3077233,0,0,13667,1708.375
1765549195.311727,0,0,17330,2166.250
1765549195.3157241,0,0,18227,2278.375
1765549195.3197217,0,0,13735,1716.875
1765549195.3237252,1,0,7887,985.875
1765549195.3277183,0,0,12647,1580.875
1765549195.3317258,0,0,17038,2129.750
1765549195.3357341,0,0,18165,2270.625
1765549195.3397462,0,0,14568,1821.000
1765549195.343718,1,0,8944,1118.000
1765549195.3477077,0,0,12969,1621.125
1765549195.351715,0,0,17097,2137.125
1765549195.3557358,0,0,18162,2270.250
1765549195.359724,0,0,14871,1858.875
1765549195.3637135,1,0,9160,1145.000
1765549195.367702,0,0,12762,1595.250
1765549195.3717127,0,0,17011,2126.375
1765549195.3757272,0,0,18113,2264.125
1765549195.3797235,0,0,15157,1894.625
1765549195.3837268,1,0,9408,1176.000
1765549195.387791,0,0,12575,1571.875
1765549195.391742,0,0,16928,2116.000
1765549195.395712,0,0,18063,2257.875
1765549195.3997107,0,0,15427,1928.375
1765549195.4037244,1,0,9663,1207.875
1765549195.407721,0,0,12382,1547.750
1765549195.411723,0,0,16842,2105.250
1765549195.415713,0,0,18010,2251.250
1765549195.4197087,0,0,15597,1949.625
1765549195.4237242,1,0,9730,1216.250
1765549195.4277225,0,0,12059,1507.375
1765549195.4317267,0,0,16719,2089.875
1765549195.435726,0,0,17949,2243.625
1765549195.439722,0,0,15724,1965.500
1765549195.443725,1,0,9735,1216.875
1765549195.447721,0,0,11675,1459.375
1765549195.4517224,0,0,16577,2072.125
1765549195.4557252,0,0,17885,2235.625
1765549195.459727,0,0,15931,1991.375
1765549195.4637227,1,0,9931,1241.375
1765549195.4677148,0,0,11435,1429.375
1765549195.471715,0,0,16470,2058.750
1765549195.4757168,0,0,17832,2229.000
1765549195.4797091,0,0,16030,2003.750
1765549195.4837077,1,0,9888,1236.000
1765549195.487704,0,0,11022,1377.750
1765549195.49171,0,0,16308,2038.500
1765549195.496087,0,0,17767,2220.875
1765549195.49987,0,0,15598,1949.750
1765549195.5037491,1,0,8556,1069.500
1765549195.50772,0,0,9468,1183.500
1765549195.5117197,0,0,15815,1976.875
1765549195.5157092,0,0,17634,2204.250
1765549195.5197089,0,0,16066,2008.250
1765549195.523707,1,0,9419,1177.375
1765549195.5277085,0,0,9827,1228.375
1765549195.5317135,0,0,15881,1985.125
1765549195.5357194,0,0,17646,2205.750
1765549195.539716,0,0,16308,2038.500
1765549195.543726,1,0,9701,1212.625
1765549195.547722,0,0,9696,1212.000
1765549195.551727,0,0,15788,1973.500
1765549195.5557277,0,0,17612,2201.500
1765549195.5597248,0,0,9963,1245.375
1765549195.563721,1,0,9551,1193.875
1765549195.5677204,0,0,15677,1959.625
1765549195.5717204,0,0,17573,2196.625
1765549195.575704,0,0,16599,2074.875
1765549195.5797024,0,0,9931,1241.375
1765549195.5837061,1,0,9132,1141.500
1765549195.587785,0,0,15470,1933.750
1765549195.5917273,0,0,17509,2188.625
1765549195.5957067,0,0,16718,2089.750
1765549195.5997036,0,0,10013,1251.625
1765549195.6037226,1,0,8852,1106.500
1765549195.6077228,0,0,15308,1913.500
1765549195.611728,0,0,17460,2182.500
1765549195.6157086,0,0,16827,2103.375
1765549195.6197007,0,0,10073,1259.125
1765549195.6237226,1,0,8488,1061.000
1765549195.6277227,0,0,15086,1885.750
1765549195.6317265,0,0,17397,2174.625
1765549195.6357236,0,0,16977,2122.125
1765549195.6397169,0,0,10338,1292.250
1765549195.6437228,1,0,8382,1047.750
1765549195.6477175,0,0,14957,1869.625
1765549195.6517236,0,0,17360,2170.000
1765549195.65572,0,0,17120,2140.000
1765549195.6597562,0,0,10625,1328.125
1765549195.663724,1,0,8285,1035.625
1765549195.6677175,0,0,14811,1851.375
1765549195.6717234,0,0,17317,2164.625
1765549195.675725,0,0,17021,2127.625
1765549195.6797192,0,0,9877,1234.625
1765549195.6837213,1,0,7028,878.500
1765549195.6877148,0,0,14213,1776.625
1765549195.6917214,0,0,17165,2145.625
1765549195.695723,0,0,17244,2155.500
1765549195.699718,0,0,10690,1336.250
1765549195.7037187,1,0,7539,942.375
1765549195.7077155,0,0,14282,1785.250
1765549195.7117221,0,0,17188,2148.500
1765549195.715721,0,0,17383,2172.875
1765549195.7197223,0,0,11051,1381.375
1765549195.7237241,1,0,7565,945.625
1765549195.7277157,0,0,14157,1769.625
1765549195.7317176,0,0,17153,2144.125
1765549195.735719,0,0,17478,2184.750
1765549195.7397187,0,0,11351,1418.875
1765549195.7437232,1,0,7535,941.875
1765549195.7477214,0,0,13977,1747.125
1765549195.7517164,0,0,17103,2137.875
1765549195.7557042,0,0,17537,2192.125
1765549195.7597384,0,0,11526,1440.750
1765549195.7637193,1,0,7350,918.750
1765549195.767716,0,0,13723,1715.375
1765549195.7717175,0,0,17034,2129.250
1765549195.7757044,0,0,17593,2199.125
1765549195.7797008,0,0,11779,1472.375
1765549195.7837203,1,0,7283,910.375
1765549195.793071,0,0,16973,2121.625
1765549195.7957356,0,0,17653,2206.625
1765549195.799723,0,0,12157,1519.625
1765549195.803716,1,0,7404,925.500
1765549195.8077013,0,0,13337,1667.125
1765549195.8117075,0,0,16928,2116.000
1765549195.8157194,0,0,17690,2211.250
1765549195.8197157,0,0,12393,1549.125
1765549195.8237097,1,0,7336,917.000
1765549195.8277023,0,0,13075,1634.375
1765549195.8317134,0,0,16856,2107.000
1765549195.8357186,0,0,17719,2214.875
1765549195.8397138,0,0,12737,1592.125
1765549195.84371,1,0,7449,931.125
1765549195.8477025,0,0,12872,1609.000
1765549195.8517056,0,0,16798,2099.750
1765549195.855715,0,0,17678,2209.750
1765549195.8597493,0,0,12098,1512.250
1765549195.8637257,1,0,6137,767.125
1765549195.8677154,0,0,11807,1475.875
1765549195.8717196,0,0,16526,2065.750
1765549195.875718,0,0,17693,2211.625
1765549195.8797154,0,0,13025,1628.125
1765549195.883717,1,0,7136,892.000
1765549195.8877149,0,0,12078,1509.750
1765549195.8917155,0,0,16603,2075.375
1765549195.8957188,0,0,17745,2218.125
1765549195.8997107,0,0,13430,1678.750
1765549195.903714,1,0,7412,926.500
1765549195.9077117,0,0,11921,1490.125
1765549195.9117208,0,0,16561,2070.125
1765549195.9157162,0,0,17749,2218.625
1765549195.9197106,0,0,13756,1719.500
1765549195.9237168,1,0,7622,952.750
1765549195.9277165,0,0,11679,1459.875
1765549195.9317195,0,0,16491,2061.375
1765549195.9357169,0,0,17738,2217.250
1765549195.9397104,0,0,14019,1752.375
1765549195.9437175,1,0,7729,966.125
1765549195.9477122,0,0,11378,1422.250
1765549195.9517171,0,0,16402,2050.250
1765549195.9557168,0,0,17716,2214.500
1765549195.9597285,0,0,14259,1782.375
1765549195.963732,1,0,7804,975.500
1765549195.9677222,0,0,11023,1377.875
1765549195.9717157,0,0,16298,2037.250
1765549195.9757123,0,0,17689,2211.125
1765549195.979709,0,0,14434,1804.250
1765549195.9837105,1,0,7795,974.375
1765549195.9877112,0,0,10605,1325.625
1765549195.9917927,0,0,16172,2021.500
1765549195.995709,0,0,17656,2207.000
1765549195.9997022,0,0,14717,1839.625
1765549196.0037167,1,0,7987,998.375
1765549196.0077124,0,0,10344,1293.000
1765549196.0117176,0,0,16085,2010.625
1765549196.0157013,0,0,17631,2203.875
1765549196.0196989,0,0,15065,1883.125
1765549196.0237215,1,0,8347,1043.375
1765549196.0277145,0,0,10198,1274.750
1765549196.0317206,0,0,16020,2002.500
1765549196.035721,0,0,17610,2201.250
1765549196.039716,0,0,14633,1829.125
1765549196.0437162,1,0,7070,883.750
1765549196.0477104,0,0,8706,1088.250
1765549196.0517557,0,0,15567,1945.875
1765549196.0557225,0,0,17503,2187.875
1765549196.0597165,0,0,15226,1903.250
1765549196.0637445,1,0,7982,997.750
1765549196.0676992,0,0,9019,1127.375
1765549196.071704,0,0,15631,1953.875
1765549196.0757158,0,0,17528,2191.000
1765549196.0797145,0,0,15664,1958.000
1765549196.0837064,1,0,8602,1075.250
1765549196.087696,0,0,9146,1143.250
1765549196.0916982,0,0,15629,1953.625
1765549196.095698,0,0,17527,2190.875
1765549196.0996964,0,0,15897,1987.125
1765549196.1037104,1,0,8819,1102.375
1765549196.1077104,0,0,8935,1116.875
1765549196.1117184,0,0,15513,1939.125
1765549196.1157115,0,0,17494,2186.750
1765549196.1197095,0,0,16152,2019.000
1765549196.1237159,1,0,9159,1144.875
1765549196.1277146,0,0,8852,1106.500
1765549196.1317153,0,0,15426,1928.250
1765549196.1357095,0,0,17465,2183.125
1765549196.1397097,0,0,16334,2041.750
1765549196.1437078,1,0,9338,1167.250
1765549196.147698,0,0,8622,1077.750
1765549196.1517031,0,0,15281,1910.125
1765549196.1557107,0,0,17422,2177.750
1765549196.1597126,0,0,16515,2064.375
1765549196.1637511,1,0,9558,1194.750
1765549196.1677616,0,0,8423,1052.875
1765549196.1717608,0,0,15133,1891.625
1765549196.175751,0,0,17376,2172.000
1765549196.1797512,0,0,16622,2077.750
1765549196.1837592,1,0,9589,1198.625
1765549196.1877544,0,0,8049,1006.125
1765549196.191837,0,0,14916,1864.500
1765549196.1957717,0,0,17317,2164.625
1765549196.1997592,0,0,9566,1195.750
1765549196.203748,1,0,7607,950.875
1765549196.2077374,0,0,14660,1832.500
1765549196.211743,0,0,17249,2156.125
1765549196.2157605,0,0,16625,2078.125
1765549196.2197535,0,0,8906,1113.250
1765549196.2237434,1,0,6435,804.375
1765549196.2277374,0,0,14114,1764.250
1765549196.231744,0,0,17119,2139.875
1765549196.2357614,0,0,16900,2112.500
1765549196.2397592,0,0,9664,1208.000
1765549196.243761,1,0,6832,854.000
1765549196.247756,0,0,14145,1768.125
1765549196.251762,0,0,17138,2142.250
1765549196.25576,0,0,17115,2139.375
1765549196.2597558,0,0,10217,1277.125
1765549196.2638502,1,0,7045,880.625
1765549196.2677152,0,0,14099,1762.375
1765549196.2717175,0,0,17129,2141.125
1765549196.2757163,0,0,17196,2149.500
1765549196.2797127,0,0,10236,1279.500
1765549196.283715,1,0,6631,828.875
1765549196.287712,0,0,13770,1721.250
1765549196.2917182,0,0,17047,2130.875
1765549196.2957003,0,0,17273,2159.125
1765549196.2996948,0,0,10337,1292.125
1765549196.3037107,1,0,6303,787.875
1765549196.3077104,0,0,13466,1683.250
1765549196.3117125,0,0,16974,2121.750
1765549196.315704,0,0,17381,2172.625
1765549196.3196955,0,0,10723,1340.375
1765549196.3237097,1,0,6359,794.875
1765549196.3277102,0,0,13309,1663.625
1765549196.3317113,0,0,16940,2117.500
1765549196.3357086,0,0,17486,2185.750
1765549196.3397079,0,0,11086,1385.750
1765549196.3437026,1,0,6380,797.500
1765549196.3476906,0,0,13085,1635.625
1765549196.351696,0,0,16885,2110.625
1765549196.3557096,0,0,17557,2194.625
1765549196.3597105,0,0,11377,1422.125
1765549196.3637273,1,0,6358,794.750
1765549196.3677077,0,0,12861,1607.625
1765549196.3717086,0,0,16830,2103.750
1765549196.3757095,0,0,17613,2201.625
1765549196.3797073,0,0,11620,1452.500
1765549196.3836997,1,0,6275,784.375
1765549196.3876932,0,0,12557,1569.625
1765549196.39178,0,0,16755,2094.375
1765549196.3957276,0,0,17585,2198.125
1765549196.3997104,0,0,11148,1393.500
1765549196.4037042,1,0,5198,649.750
1765549196.407695,0,0,11667,1458.375
1765549196.411699,0,0,16537,2067.125
1765549196.4157045,0,0,17656,2207.000
1765549196.4197054,0,0,12046,1505.750
1765549196.4237032,1,0,6044,755.500
1765549196.427692,0,0,11829,1478.625
1765549196.4317014,0,0,16591,2073.875
1765549196.435711,0,0,17730,2216.250
1765549196.4397087,0,0,12462,1557.750
1765549196.4437132,1,0,6282,785.250
1765549196.4477127,0,0,11633,1454.125
1765549196.4517138,0,0,16546,2068.250
1765549196.45573,0,0,17747,2218.375
1765549196.4597328,0,0,12579,1572.375
1765549196.4637027,1,0,6069,758.625
1765549196.4677305,0,0,11113,1389.125
1765549196.471702,0,0,16414,2051.750
1765549196.4756951,0,0,17755,2219.375
1765549196.4796898,0,0,13047,1630.875
1765549196.483704,1,0,6442,805.250
1765549196.4877062,0,0,10954,1369.250
1765549196.4917064,0,0,16377,2047.125
1765549196.4960556,0,0,17773,2221.625
1765549196.4998438,0,0,13417,1677.125
1765549196.503733,1,0,6662,832.750
1765549196.5077066,0,0,10691,1336.375
1765549196.511709,0,0,16306,2038.250
1765549196.515695,0,0,17769,2221.125
1765549196.5196908,0,0,13751,1718.875
1765549196.5236902,1,0,6866,858.250
1765549196.5276897,0,0,10403,1300.375
1765549196.531701,0,0,16222,2027.750
1765549196.535706,0,0,17757,2219.625
1765549196.539702,0,0,14024,1753.000
1765549196.5437093,1,0,6972,871.500
1765549196.547702,0,0,10031,1253.875
1765549196.551706,0,0,16110,2013.750
1765549196.555883,0,0,17734,2216.750
1765549196.5597847,0,0,14352,1794.000
1765549196.564101,1,0,7202,900.250
1765549196.567862,0,0,9772,1221.500
1765549196.571723,0,0,16022,2002.750
1765549196.575716,0,0,17712,2214.000
1765549196.5797093,0,0,13922,1740.250
1765549196.5836983,1,0,5995,749.375
1765549196.5876894,0,0,8314,1039.250
1765549196.591791,0,0,15591,1948.875
1765549196.5957088,0,0,17619,2202.375
1765549196.5996935,0,0,14822,1852.750
1765549196.6036956,1,0,7371,921.375
1765549196.6076891,0,0,8989,1123.625
1765549196.6116903,0,0,15768,1971.000
1765549196.6156945,0,0,17674,2209.250
1765549196.6196923,0,0,15276,1909.500
1765549196.6237144,1,0,7915,989.375
1765549196.6277068,0,0,9031,1128.875
1765549196.6317127,0,0,15747,1968.375
1765549196.6357088,0,0,17667,2208.375
1765549196.6397064,0,0,15577,1947.125
1765549196.643711,1,0,8239,1029.875
1765549196.647709,0,0,8864,1108.000
1765549196.6517084,0,0,15647,1955.875
1765549196.6557066,0,0,17636,2204.500
1765549196.6597033,0,0,15775,1971.875
1765549196.6637137,1,0,8350,1043.750
1765549196.667745,0,0,8514,1064.250
1765549196.6717083,0,0,15478,1934.750
1765549196.6757088,0,0,17586,2198.250
1765549196.6797316,0,0,15972,1996.500
1765549196.683722,1,0,8487,1060.875
1765549196.6877136,1,0,8231,1028.875
1765549196.6917093,0,0,15331,1916.375
1765549196.6956892,0,0,17546,2193.250
1765549196.6996872,0,0,16195,2024.375
1765549196.7036972,1,0,8733,1091.625
1765549196.707691,1,0,8041,1005.125
1765549196.711696,0,0,15194,1899.250
1765549196.715692,0,0,17506,2188.250
1765549196.7196894,0,0,16369,2046.125
1765549196.7237082,1,0,8875,1109.375
1765549196.7277048,0,0,7771,971.375
1765549196.73171,0,0,15025,1878.125
1765549196.7357078,0,0,17460,2182.500
1765549196.7397022,0,0,16429,2053.625
1765549196.7437103,1,0,8674,1084.250
1765549196.7477047,0,0,7108,888.500
1765549196.751707,0,0,14697,1837.125
1765549196.7557087,0,0,17378,2172.250
1765549196.759705,0,0,16501,2062.625
1765549196.7637072,1,0,8538,1067.250
1765549196.7677033,1,0,6513,814.125
1765549196.771741,0,0,14382,1797.750
1765549196.7757087,0,0,17305,2163.125
1765549196.7797012,0,0,16881,2110.125
1765549196.7837048,1,0,9542,1192.750
1765549196.7877057,1,0,7163,895.375
1765549196.7971668,0,0,17083,2135.375
1765549196.7997584,0,0,17083,2135.375
1765549196.803713,1,0,9941,1242.625
1765549196.8076913,1,0,7195,899.375
1765549196.8116953,0,0,14399,1799.875
1765549196.815708,0,0,17308,2163.500
1765549196.8197052,0,0,17245,2155.625
1765549196.823696,1,0,10327,1290.875
1765549196.8276865,1,0,7204,900.500
1765549196.8316941,0,0,14264,1783.000
1765549196.8357098,0,0,17266,2158.250
1765549196.8397079,0,0,17342,2167.750
1765549196.8436954,1,0,7028,878.500
1765549196.847688,1,0,14042,1755.250
1765549196.8516972,0,0,17202,2150.250
1765549196.8557067,0,0,17443,2180.375
1765549196.8597054,0,0,10817,1352.125
1765549196.8636987,1,0,6952,869.000
1765549196.8676875,1,0,13833,1729.125
1765549196.871733,0,0,17142,2142.750
1765549196.8757076,0,0,17534,2191.750
1765549196.8797066,0,0,11144,1393.000
1765549196.8837097,1,0,6946,868.250
1765549196.8877022,1,0,13646,1705.750
1765549196.8917053,0,0,17088,2136.000
1765549196.895708,0,0,17589,2198.625
1765549196.8997035,0,0,11305,1413.125
1765549196.9037068,1,0,6724,840.500
1765549196.9077027,0,0,13336,1667.000
1765549196.9117062,0,0,17001,2125.125
1765549196.9157064,0,0,17536,2192.000
1765549196.9197054,0,0,10729,1341.125
1765549196.923706,1,0,5540,692.500
1765549196.9277022,1,0,12517,1564.625
1765549196.931707,0,0,16793,2099.125
1765549196.9357035,0,0,17587,2198.375
1765549196.9397035,0,0,11119,1389.875
1765549196.9437084,1,0,5618,702.250
1765549196.9477022,1,0,12292,1536.500
1765549196.951706,0,0,16747,2093.375
1765549196.9557047,0,0,17715,2214.375
1765549196.9597049,0,0,12019,1502.375
1765549196.9637084,1,0,6447,805.875
1765549196.967702,1,0,12460,1557.500
1765549196.971704,0,0,16796,2099.500
1765549196.9757035,0,0,17793,2224.125
1765549196.9797003,0,0,12509,1563.625
1765549196.9836953,1,0,6776,847.000
1765549196.987687,1,0,12349,1543.625
1765549196.9916947,0,0,16763,2095.375
1765549196.9957774,0,0,17827,2228.375
1765549196.9997125,0,0,12945,1618.125
1765549197.0036988,1,0,7058,882.250
1765549197.0076888,1,0,12183,1522.875
1765549197.0116963,0,0,16712,2089.000
1765549197.0157042,0,0,17831,2228.875
1765549197.019699,0,0,13131,1641.375
1765549197.0236955,1,0,6998,874.750
1765549197.0277028,0,0,11804,1475.500
1765549197.0317345,0,0,16605,2075.625
1765549197.0356934,0,0,17745,2218.125
1765549197.0396872,0,0,11719,1464.875
1765549197.0437205,1,0,4453,556.625
1765549197.047705,1,0,9680,1210.000
1765549197.051707,0,0,16059,2007.375
1765549197.0556898,0,0,17712,2214.000
1765549197.059684,0,0,13387,1673.375
1765549197.0637035,1,0,6667,833.375
1765549197.0677037,1,0,10816,1352.000
1765549197.0717084,0,0,16374,2046.750
1765549197.0756905,0,0,17824,2228.000
1765549197.0796843,0,0,14071,1758.875
1765549197.083701,1,0,7458,932.250
1765549197.0877151,1,0,10950,1368.750
1765549197.0917046,0,0,16398,2049.750
1765549197.0956867,0,0,17823,2227.875
1765549197.0996823,0,0,13739,1717.375
1765549197.1037118,1,0,6521,815.125
1765549197.107699,1,0,9804,1225.500
1765549197.1117032,0,0,16076,2009.500
1765549197.1157036,0,0,17753,2219.125
1765549197.1197135,0,0,14560,1820.000
1765549197.1237059,1,0,7641,955.125
1765549197.1276984,1,0,10212,1276.500
1765549197.1317024,0,0,16173,2021.625
1765549197.1357129,0,0,17776,2222.000
1765549197.1396995,0,0,14910,1863.750
1765549197.143699,1,0,7963,995.375
1765549197.1476958,1,0,10036,1254.500
1765549197.1517134,0,0,16095,2011.875
1765549197.155702,0,0,17748,2218.500
1765549197.159699,0,0,15212,1901.500
1765549197.163703,1,0,8250,1031.250
1765549197.167708,1,0,9850,1231.250
1765549197.1717029,0,0,16009,2001.125
1765549197.175767,0,0,17715,2214.375
1765549197.1797445,0,0,15494,1936.750
1765549197.1837475,1,0,8521,1065.125
1765549197.187738,1,0,9654,1206.750
1765549197.1917562,0,0,15910,1988.750
1765549197.1958256,0,0,17678,2209.750
1765549197.1997573,0,0,15675,1959.375
1765549197.2037408,1,0,8609,1076.125
1765549197.207739,1,0,9330,1166.250
1765549197.211731,0,0,15769,1971.125
1765549197.2157412,0,0,17632,2204.000
1765549197.219743,0,0,15880,1985.000
1765549197.223749,1,1,8763,1095.375
1765549197.2277255,1,0,9017,1127.125
1765549197.2317324,0,0,15615,1951.875
1765549197.2357447,0,0,17582,2197.750
1765549197.2397456,0,0,16109,2013.625
1765549197.243749,1,1,9024,1128.000
1765549197.2477455,1,0,8849,1106.125
1765549197.2517493,0,0,15500,1937.500
1765549197.2557478,0,0,17543,2192.875
1765549197.2597432,0,0,16305,2038.125
1765549197.2637367,1,1,9234,1154.250
1765549197.2677248,1,0,8649,1081.125
1765549197.2717323,0,0,15365,1920.625
1765549197.2758245,0,0,17499,2187.375
1765549197.2797,0,0,16120,2015.000
1765549197.2836947,1,1,8329,1041.125
1765549197.2876847,1,0,7344,918.000
1765549197.2916896,0,0,14859,1857.375
1765549197.2956984,0,0,17371,2171.375
1765549197.2996948,0,0,16566,2070.750
1765549197.3037128,1,1,9395,1174.375
1765549197.307698,1,0,7987,998.375
1765549197.3117025,0,0,14991,1873.875
1765549197.3157015,0,0,17405,2175.625
1765549197.319707,0,0,16740,2092.500
1765549197.3237002,1,1,9592,1199.000
1765549197.3276978,1,0,7776,972.000
1765549197.3317015,0,0,14815,1851.875
1765549197.3357074,0,0,17355,2169.375
1765549197.3396957,0,0,16910,2113.750
1765549197.343687,1,1,9895,1236.875
1765549197.347682,1,0,7726,965.750
1765549197.3516884,0,0,14708,1838.500
1765549197.3556986,0,0,17322,2165.250
1765549197.3596928,0,0,17116,2139.500
1765549197.3636973,1,1,10444,1305.500
1765549197.3677075,1,0,7903,987.875
1765549197.3717005,0,0,14639,1829.875
1765549197.3757114,0,0,17295,2161.875
1765549197.3796942,0,0,17178,2147.250
1765549197.3837092,1,1,10406,1300.750
1765549197.3876934,1,0,7444,930.500
1765549197.3916986,0,0,14333,1791.625
1765549197.3957765,0,0,17208,2151.000
1765549197.3997242,0,0,17268,2158.500
1765549197.4036927,1,0,10627,1328.375
1765549197.4076781,1,0,7296,912.000
1765549197.4116845,0,0,14127,1765.875
1765549197.4156992,0,0,17149,2143.625
1765549197.4196968,0,0,17386,2173.250
1765549197.4236865,1,1,11026,1378.250
1765549197.4276779,1,0,7399,924.875
1765549197.4316964,0,0,14018,1752.250
1765549197.4357064,0,0,17114,2139.250
1765549197.4396996,0,0,17498,2187.250
1765549197.4437003,1,1,11489,1436.125
1765549197.4476948,1,0,7606,950.750
1765549197.4517038,0,0,13947,1743.375
1765549197.4557083,0,0,17085,2135.625
1765549197.4596965,0,0,17448,2181.000
1765549197.4636903,1,1,10895,1361.875
1765549197.4676769,1,0,6407,800.875
1765549197.471685,0,0,13202,1650.250
1765549197.4757142,0,0,16889,2111.125
1765549197.4796984,0,0,17572,2196.500
1765549197.483689,1,1,7266,908.250
1765549197.4876788,1,0,13401,1675.125
1765549197.4916835,0,0,16940,2117.500
1765549197.496081,0,0,17670,2208.750
1765549197.4998522,0,0,12423,1552.875
1765549197.5037212,1,1,7665,958.125
1765549197.5076933,1,0,13394,1674.250
1765549197.51169,0,0,16926,2115.750
1765549197.515681,0,0,17696,2212.000
1765549197.5196795,0,0,12591,1573.875
1765549197.523681,1,1,7516,939.500
1765549197.5276785,1,0,13061,1632.625
1765549197.5316892,0,0,16827,2103.375
1765549197.5356908,0,0,17697,2212.125
1765549197.5396905,0,0,12796,1599.500
1765549197.5436933,1,1,7443,930.375
1765549197.5476913,1,0,12746,1593.250
1765549197.5516944,0,0,16735,2091.875
1765549197.5558295,0,0,17696,2212.000
1765549197.5596776,0,0,13039,1629.875
1765549197.5636778,1,1,7446,930.750
1765549197.567679,1,0,12450,1556.250
1765549197.5716796,0,0,16650,2081.250
1765549197.5756755,0,0,17690,2211.250
1765549197.5797167,0,0,13236,1654.500
1765549197.583673,1,1,7393,924.125
1765549197.5876794,1,0,12081,1510.125
1765549197.5916843,0,0,16547,2068.375
1765549197.5957623,0,0,17677,2209.625
1765549197.5996883,0,0,13460,1682.500
1765549197.603679,1,1,7398,924.750
1765549197.607679,1,0,11732,1466.500
1765549197.6116874,0,0,16451,2056.375
1765549197.6156948,0,0,17665,2208.125
1765549197.6196926,0,0,13831,1728.875
1765549197.6236827,1,1,7684,960.500
1765549197.6276782,1,0,11565,1445.625
1765549197.6316884,0,0,16399,2049.875
1765549197.6356983,0,0,17648,2206.000
1765549197.6397057,0,0,13618,1702.250
1765549197.643699,1,1,6976,872.000
1765549197.6476974,1,0,10645,1330.625
1765549197.6516972,0,0,16149,2018.625
1765549197.655707,0,0,17598,2199.750
1765549197.6596916,0,0,14152,1769.000
1765549197.6636958,1,1,7553,944.125
1765549197.667692,1,0,10634,1329.250
1765549197.6717105,0,0,16142,2017.750
1765549197.6756992,0,0,17602,2200.250
1765549197.679694,0,0,14435,1804.375
1765549197.683698,1,1,7718,964.750
1765549197.6877012,1,0,10359,1294.875
1765549197.6916974,0,0,16054,2006.750
1765549197.6956995,0,0,17579,2197.375
1765549197.699693,0,0,14776,1847.000
1765549197.7037067,1,1,8033,1004.125
1765549197.7076898,1,0,10180,1272.500
1765549197.7116964,0,0,15986,1998.250
1765549197.715698,0,0,17559,2194.875
1765549197.7197042,0,0,15046,1880.750
1765549197.7236955,1,1,8229,1028.625
1765549197.7276897,1,0,9906,1238.250
1765549197.7316933,0,0,15880,1985.000
1765549197.7357037,0,0,17527,2190.875
1765549197.7396922,0,0,15205,1900.625
1765549197.7436965,1,1,8249,1031.125
1765549197.7476895,1,0,9503,1187.875
1765549197.7517033,0,0,15732,1966.500
1765549197.7556887,0,0,17487,2185.875
1765549197.7596924,0,0,15428,1928.500
1765549197.7637038,1,1,8397,1049.625
1765549197.767707,1,0,9228,1153.500
1765549197.7716944,0,0,15617,1952.125
1765549197.7756777,0,0,17455,2181.875
1765549197.7796874,0,0,15665,1958.125
1765549197.7837086,1,1,8603,1075.375
1765549197.78769,1,0,8975,1121.875
1765549197.7916908,0,0,15492,1936.500
1765549197.8010685,0,0,15835,1979.375
1765549197.803714,1,1,8712,1089.000
1765549197.8077133,1,0,8680,1085.000
1765549197.8116927,0,0,15349,1918.625
1765549197.8156936,0,0,17383,2172.875
1765549197.8196945,0,0,15686,1960.750
1765549197.823697,1,1,7898,987.250
1765549197.8276772,1,0,7450,931.250
1765549197.8316846,0,0,14889,1861.125
1765549197.8356907,0,0,17274,2159.250
1765549197.8396904,0,0,16165,2020.625
1765549197.843685,1,1,8891,1111.375
1765549197.8476744,1,0,7999,999.875
1765549197.8516805,0,0,15007,1875.875
1765549197.8556907,0,0,17312,2164.000
1765549197.859689,0,0,16407,2050.875
1765549197.8636928,1,1,9250,1156.250
1765549197.8676894,1,0,7975,996.875
1765549197.871695,0,0,14920,1865.000
1765549197.8756928,0,0,17288,2161.000
1765549197.8796866,0,0,16578,2072.250
1765549197.883733,1,1,9440,1180.000
1765549197.8876908,1,0,7738,967.250
1765549197.8916945,0,0,14742,1842.750
1765549197.8956864,0,0,17242,2155.250
1765549197.8996847,0,0,16724,2090.500
1765549197.9036791,1,1,9653,1206.625
1765549197.907674,1,0,7569,946.125
1765549197.9116807,0,0,14582,1822.750
1765549197.9156902,0,0,17200,2150.000
1765549197.9196885,0,0,16915,2114.375
1765549197.923691,1,1,10071,1258.875
1765549197.9276848,1,0,7608,951.000
1765549197.9316933,0,0,14482,1810.250
1765549197.9356894,0,0,17170,2146.250
1765549197.939687,0,0,17040,2130.000
1765549197.9436865,1,1,10300,1287.500
1765549197.9476871,1,0,7452,931.500
1765549197.9516928,0,0,14294,1786.750
1765549197.9556928,0,0,17117,2139.625
1765549197.9597173,0,0,17168,2146.000
1765549197.963686,1,1,10651,1331.375
1765549197.9676712,1,0,7475,934.375
1765549197.9716785,0,0,14168,1771.000
1765549197.975689,0,0,17079,2134.875
1765549197.9796882,0,0,17278,2159.750
1765549197.9836962,1,1,10966,1370.750
1765549197.9877162,1,0,7460,932.500
1765549197.991725,0,0,14020,1752.500
1765549197.9957356,0,0,17034,2129.250
1765549197.9998062,0,0,17215,2151.875
1765549198.0037384,1,1,10345,1293.125
1765549198.0077288,1,0,6290,786.250
1765549198.011728,0,0,13343,1667.875
1765549198.015738,0,0,16861,2107.625
1765549198.019736,0,0,17432,2179.000
1765549198.0237234,1,1,11660,1457.500
1765549198.0277114,1,0,7565,945.625
1765549198.03173,0,0,13740,1717.500
1765549198.035736,0,0,16961,2120.125
1765549198.0397322,0,0,17545,2193.125
1765549198.043737,1,1,12126,1515.750
1765549198.04773,1,0,7800,975.000
1765549198.0517378,0,0,13656,1707.000
1765549198.055739,0,0,16927,2115.875
1765549198.0597348,0,0,17586,2198.250
1765549198.0637238,1,1,12413,1551.625
1765549198.0677116,1,0,7807,975.875
1765549198.071722,0,0,13450,1681.250
1765549198.075732,0,0,16860,2107.500
1765549198.0797324,0,0,17604,2200.500
1765549198.0837338,1,1,12684,1585.500
1765549198.0876765,1,0,7829,978.625
1765549198.0916746,0,0,13240,1655.000
1765549198.0956736,0,0,16790,2098.750
1765549198.0996735,0,0,17619,2202.375
1765549198.1036875,1,1,13033,1629.125
1765549198.1076896,1,0,7987,998.375
1765549198.111693,0,0,13067,1633.375
1765549198.1156907,0,0,16731,2091.375
1765549198.1196895,0,0,17630,2203.750
1765549198.1236932,1,1,8358,1044.750
1765549198.1276882,1,0,13016,1627.000
1765549198.1316917,0,0,16701,2087.625
1765549198.1356876,0,0,17622,2202.750
1765549198.1396847,0,0,13681,1710.125
1765549198.143691,1,1,8329,1041.125
1765549198.1476862,1,0,12706,1588.250
1765549198.1516898,0,0,16601,2075.125
1765549198.1556895,0,0,17593,2199.125
1765549198.159685,0,0,13887,1735.875
1765549198.163692,1,1,8357,1044.625
1765549198.1676881,1,0,12420,1552.500
1765549198.17169,0,0,16510,2063.750
1765549198.175689,0,0,17551,2193.875
1765549198.1796849,0,0,13457,1682.125
1765549198.1836884,1,1,7294,911.750
1765549198.1877358,1,0,11373,1421.625
1765549198.1917338,0,0,16230,2028.750
1765549198.1957307,0,0,17496,2187.000
1765549198.199805,0,0,14165,1770.625
1765549198.203739,1,1,8186,1023.250
1765549198.2077148,1,0,11607,1450.875
1765549198.2117233,0,0,16285,2035.625
1765549198.2157364,0,0,17509,2188.625
1765549198.2197275,0,0,14563,1820.375
1765549198.2237208,1,1,8593,1074.125
1765549198.2277117,1,0,11513,1439.125
1765549198.2317233,0,0,16244,2030.500
1765549198.235733,0,0,17488,2186.000
1765549198.2397313,0,0,14796,1849.500
1765549198.2437327,1,1,8744,1093.000
1765549198.2477264,1,0,11253,1406.625
1765549198.2517333,0,0,16154,2019.250
1765549198.2557313,0,0,17453,2181.625
1765549198.2597277,0,0,15065,1883.125
1765549198.2637296,1,1,8976,1122.000
1765549198.2677333,1,0,11032,1379.000
1765549198.271753,0,0,16069,2008.625
1765549198.2757196,0,0,17418,2177.250
1765549198.2797086,0,0,15207,1900.875
1765549198.2837257,1,1,8975,1121.875
1765549198.2877462,1,0,10642,1330.250
1765549198.2916915,0,0,15933,1991.625
1765549198.2956731,0,0,17372,2171.500
1765549198.299668,0,0,15389,1923.625
1765549198.3036854,1,1,9096,1137.000
1765549198.3076847,1,0,10352,1294.000
1765549198.3116884,0,0,15818,1977.250
1765549198.3156927,0,0,17332,2166.500
1765549198.3196862,0,0,15526,1940.750
1765549198.3236907,1,1,9100,1137.500
1765549198.3276818,1,0,9977,1247.125
1765549198.3316867,0,0,15674,1959.250
1765549198.335688,0,0,17287,2160.875
1765549198.3396862,0,0,15742,1967.750
1765549198.3436773,1,1,9320,1165.000
1765549198.3476667,1,0,9789,1223.625
1765549198.3516734,0,0,15578,1947.250
1765549198.355684,0,0,17254,2156.750
1765549198.359684,0,0,15541,1942.625
1765549198.3636885,1,1,8461,1057.625
1765549198.3676817,1,0,8608,1076.000
1765549198.3716872,0,0,15171,1896.375
1765549198.3756862,0,0,17152,2144.000
1765549198.3796852,0,0,16022,2002.750
1765549198.3836887,1,1,9441,1180.125
1765549198.3876977,1,0,9110,1138.750
1765549198.3916864,0,0,15273,1909.125
1765549198.3956864,0,0,17180,2147.500
1765549198.3997543,0,0,16242,2030.250
1765549198.4036913,1,1,9752,1219.000
1765549198.4076698,1,0,9050,1131.250
1765549198.4116762,0,0,15191,1898.875
1765549198.415685,0,0,17152,2144.000
1765549198.419684,0,0,16462,2057.750
1765549198.423679,1,1,10173,1271.625
1765549198.4276688,1,0,9107,1138.375
1765549198.431676,0,0,15135,1891.875
1765549198.4356835,0,0,17128,2141.000
1765549198.4396813,0,0,16505,2063.125
1765549198.4436862,1,1,10014,1251.750
1765549198.4476843,1,0,8572,1071.500
1765549198.4516876,0,0,14873,1859.125
1765549198.4556873,0,0,17053,2131.625
1765549198.4596906,0,0,16695,2086.875
1765549198.4636748,1,1,10490,1311.250
1765549198.467666,1,0,8708,1088.500
1765549198.4716787,0,0,14831,1853.875
1765549198.4756863,0,0,17035,2129.375
1765549198.4796805,0,0,16777,2097.125
1765549198.483674,1,1,10513,1314.125
1765549198.487667,1,0,8346,1043.250
1765549198.4916914,0,0,14601,1825.125
1765549198.49609,0,0,16968,2121.000
1765549198.4998307,0,0,16904,2113.000
1765549198.5037065,1,1,10884,1360.500
1765549198.507686,1,0,8397,1049.625
1765549198.5116847,0,0,14508,1813.500
1765549198.5156732,0,0,16937,2117.125
1765549198.5196662,0,0,16972,2121.500
1765549198.5236838,1,1,10941,1367.625
1765549198.5276816,1,0,8064,1008.000
1765549198.5316904,0,0,14255,1781.875
1765549198.5356863,0,0,16864,2108.000
1765549198.5396821,0,0,16875,2109.375
1765549198.543683,1,1,10162,1270.250
1765549198.5476646,1,0,6711,838.875
1765549198.5516768,0,0,13573,1696.625
1765549198.5556877,0,0,16694,2086.750
1765549198.559684,0,0,17057,2132.125
1765549198.563684,1,1,11072,1384.000
1765549198.5676794,1,0,7408,926.000
1765549198.5716875,0,0,13713,1714.125
1765549198.5756862,0,0,16737,2092.125
1765549198.5796833,0,0,17184,2148.000
1765549198.5836842,1,1,11536,1442.000
1765549198.5876806,1,0,7644,955.500
1765549198.5917208,0,0,13683,1710.375
1765549198.5956743,0,0,16727,2090.875
1765549198.5997448,0,0,17272,2159.000
1765549198.6036785,1,1,11991,1498.875
1765549198.6076663,1,0,7854,981.750
1765549198.611675,0,0,13577,1697.125
1765549198.6156826,0,0,16693,2086.625
1765549198.6196833,0,0,17300,2162.500
1765549198.6236768,1,1,12095,1511.875
1765549198.6276643,1,0,7614,951.750
1765549198.6316736,0,0,13274,1659.250
1765549198.635687,0,0,16609,2076.125
1765549198.63968,0,0,17328,2166.000
1765549198.6436856,1,1,12423,1552.875
1765549198.6476803,1,0,7704,963.000
1765549198.6516824,0,0,13109,1638.625
1765549198.6556785,0,0,16559,2069.875
1765549198.6596951,0,0,17350,2168.750
1765549198.6637104,1,1,12649,1581.125
1765549198.6676848,1,0,7679,959.875
1765549198.671685,0,0,12859,1607.375
1765549198.6756685,0,0,16489,2061.125
1765549198.679665,0,0,17358,2169.750
1765549198.6836822,1,1,12878,1609.750
1765549198.6876836,1,0,7639,954.875
1765549198.6916828,0,0,12583,1572.875
1765549198.6956625,0,0,16413,2051.625
1765549198.699664,0,0,17363,2170.375
1765549198.7036836,1,1,13183,1647.875
1765549198.7076821,1,0,7782,972.750
1765549198.7116814,0,0,12376,1547.000
1765549198.7156823,0,0,16354,2044.250
1765549198.719679,0,0,17338,2167.250
1765549198.7236838,1,1,12784,1598.000
1765549198.7276793,1,0,6783,847.875
1765549198.731685,0,0,11436,1429.500
1765549198.735683,0,0,16112,2014.000
1765549198.739677,0,0,17313,2164.125
1765549198.743684,1,1,13392,1674.000
1765549198.7476814,1,0,7412,926.500
1765549198.751684,0,0,11470,1433.750
1765549198.7556806,0,0,16126,2015.750
1765549198.7596767,0,0,17334,2166.750
1765549198.7636817,1,1,7694,961.750
1765549198.7676802,1,0,11329,1416.125
1765549198.7716823,0,0,16087,2010.875
1765549198.7756824,0,0,17330,2166.250
1765549198.7796762,0,0,14044,1755.500
1765549198.783669,1,1,7863,982.875
1765549198.7876616,1,0,11034,1379.250
1765549198.791669,0,0,16003,2000.375
1765549198.7957258,0,0,17311,2163.875
1765549198.8063896,1,0,8090,1011.250
1765549198.8082924,1,0,10808,1351.000
1765549198.8117306,0,0,15930,1991.250
1765549198.815708,0,0,17290,2161.250
1765549198.8197052,0,0,14623,1827.875
1765549198.8237205,1,1,8307,1038.375
1765549198.827719,1,0,10574,1321.750
1765549198.8317301,0,0,15851,1981.375
1765549198.835708,0,0,17266,2158.250
1765549198.8397026,0,0,14718,1839.750
1765549198.8437052,1,1,8167,1020.875
1765549198.847703,1,0,10059,1257.375
1765549198.8517134,0,0,15690,1961.250
1765549198.8557281,0,0,17224,2153.000
1765549198.8597245,0,0,14987,1873.375
1765549198.863727,1,1,8411,1051.375
1765549198.8677194,1,0,9851,1231.375
1765549198.871726,0,0,15608,1951.000
1765549198.875728,0,0,17204,2150.500
1765549198.8797238,0,0,15207,1900.875
1765549198.8837233,1,1,8552,1069.000
1765549198.887719,1,0,9567,1195.875
1765549198.8917215,0,0,15496,1937.000
1765549198.8957257,0,0,17173,2146.625
1765549198.8996909,0,0,14923,1865.375
1765549198.9036782,1,1,7533,941.625
1765549198.9076607,1,0,8246,1030.750
1765549198.9116683,0,0,15069,1883.625
1765549198.9156802,0,0,17075,2134.375
1765549198.9196773,0,0,15466,1933.250
1765549198.9236708,1,1,8484,1060.500
1765549198.9276595,1,0,8689,1086.125
1765549198.9316669,0,0,15170,1896.250
1765549198.9356782,0,0,17111,2138.875
1765549198.9396756,0,0,15750,1968.750
1765549198.9436672,1,1,8848,1106.000
1765549198.9476585,1,0,8659,1082.375
1765549198.9516668,0,0,15114,1889.250
1765549198.9556756,0,0,17098,2137.250
1765549198.9596741,0,0,15814,1976.750
1765549198.963679,1,1,8640,1080.000
1765549198.9676769,1,0,8024,1003.000
1765549198.9716785,0,0,14841,1855.125
1765549198.9756734,0,0,17033,2129.125
1765549198.9796765,0,0,16080,2010.000
1765549198.98368,1,1,9100,1137.500
1765549198.9876735,1,0,8063,1007.875
1765549198.9916742,0,0,14782,1847.750
1765549198.9956782,0,0,17021,2127.625
1765549198.9996738,0,0,16309,2038.625
1765549199.003746,1,1,9494,1186.750
1765549199.0076873,1,0,8088,1011.000
1765549199.0116851,0,0,14716,1839.500
1765549199.0156572,0,0,17005,2125.625
1765549199.0196576,0,0,16488,2061.000
1765549199.0236661,1,1,9779,1222.375
1765549199.0276613,1,0,7993,999.125
1765549199.031669,0,0,14593,1824.125
1765549199.0356736,0,0,16971,2121.375
1765549199.0396671,0,0,16620,2077.500
1765549199.0436814,1,1,9989,1248.625
1765549199.0476775,1,0,7836,979.500
1765549199.051681,0,0,14438,1804.750
1765549199.0556772,0,0,16930,2116.250
1765549199.059673,0,0,16756,2094.500
1765549199.063678,1,1,10261,1282.625
1765549199.067675,1,0,7739,967.375
1765549199.0716803,0,0,14290,1786.250
1765549199.0756814,0,0,16888,2111.000
1765549199.079672,0,0,16684,2085.500
1765549199.0836773,1,0,9605,1200.625
1765549199.0876756,1,0,6553,819.125
1765549199.0916786,0,0,13698,1712.250
1765549199.0957012,0,0,16742,2092.750
1765549199.0996563,0,0,16906,2113.250
1765549199.1036773,1,1,10472,1309.000
1765549199.1076756,1,0,7160,895.000
1765549199.1116788,0,0,13809,1726.125
1765549199.115679,0,0,16777,2097.125
1765549199.1196733,0,0,17029,2128.625
1765549199.1236815,1,1,10759,1344.875
1765549199.127684,1,0,7145,893.125
1765549199.1316764,0,0,13689,1711.125
1765549199.1356614,0,0,16746,2093.250
1765549199.1396582,0,0,17147,2143.375
1765549199.143672,1,0,11247,1405.875
1765549199.1476722,1,0,7346,918.250
1765549199.1516778,0,0,13589,1698.625
1765549199.1556637,0,0,16717,2089.625
1765549199.1596584,0,0,17216,2152.000
1765549199.1636734,1,0,11513,1439.125
1765549199.1676707,1,0,7293,911.625
1765549199.1716764,0,0,13377,1672.125
1765549199.1756725,0,0,16659,2082.375
1765549199.1796715,0,0,17261,2157.625
1765549199.1836767,1,0,11735,1466.875
1765549199.1876683,1,0,7195,899.375
1765549199.1916723,0,0,13136,1642.000
1765549199.1956885,0,0,16591,2073.875
1765549199.1996737,0,0,17298,2162.250
1765549199.2037451,1,1,11962,1495.250
1765549199.2076852,1,0,7131,891.375
1765549199.2116766,0,0,12883,1610.375
1765549199.2156594,0,0,16525,2065.625
1765549199.2196577,0,0,17333,2166.625
1765549199.2236738,1,0,12304,1538.000
1765549199.2276692,1,0,7215,901.875
1765549199.2316756,0,0,12688,1586.000
1765549199.2356586,0,0,16471,2058.875
1765549199.2396564,0,0,17352,2169.000
1765549199.2436755,1,0,12519,1564.875
1765549199.2476757,1,0,7161,895.125
1765549199.251676,0,0,12378,1547.250
1765549199.2556741,0,0,16388,2048.500
1765549199.2596807,0,0,17308,2163.500
1765549199.2636871,1,0,11867,1483.375
1765549199.2676725,1,0,5826,728.250
1765549199.271671,0,0,11295,1411.875
1765549199.2756717,0,0,16115,2014.375
1765549199.2796679,0,0,17323,2165.375
1765549199.2836657,1,0,12868,1608.500
1765549199.2876568,1,0,6970,871.250
1765549199.291663,0,0,11648,1456.000
1765549199.2956734,0,0,16217,2027.125
1765549199.2996845,0,0,17383,2172.875
1765549199.3036747,1,0,13331,1666.375
1765549199.307672,1,0,7345,918.125
1765549199.3116744,0,0,11528,1441.000
1765549199.3156762,0,0,16185,2023.125
1765549199.3196719,0,0,17384,2173.000
1765549199.3236775,1,0,13480,1685.000
1765549199.3276713,1,0,7256,907.000
1765549199.3316746,0,0,11112,1389.000
1765549199.3356726,0,0,16072,2009.000
1765549199.339667,0,0,17366,2170.750
1765549199.3436599,1,0,13905,1738.125
1765549199.347654,1,0,7649,956.125
1765549199.3516634,0,0,10990,1373.750
1765549199.3556728,0,0,16033,2004.125
1765549199.3596697,0,0,17358,2169.750
1765549199.3636737,1,0,14181,1772.625
1765549199.3676713,1,0,7816,977.000
1765549199.3716755,0,0,10727,1340.875
1765549199.37567,0,0,15952,1994.000
1765549199.3796682,0,0,17336,2167.000
1765549199.3836727,1,0,14415,1801.875
1765549199.387671,1,0,7927,990.875
1765549199.3916728,0,0,10386,1298.250
1765549199.3956733,0,0,15845,1980.625
1765549199.3996985,0,0,14674,1834.250
1765549199.4038103,1,0,8110,1013.750
1765549199.4077263,1,0,10134,1266.750
1765549199.4117239,0,0,15755,1969.375
1765549199.4156964,0,0,17280,2160.000
1765549199.4196956,0,0,15022,1877.750
1765549199.4237149,1,0,8517,1064.625
1765549199.427712,1,0,10060,1257.500
1765549199.4317167,0,0,15709,1963.625
1765549199.4356995,0,0,17263,2157.875
1765549199.4396946,0,0,14646,1830.750
1765549199.4437196,1,0,7347,918.375
1765549199.4477143,1,0,8653,1081.625
1765549199.4517152,0,0,15273,1909.125
1765549199.4557173,0,0,17158,2144.750
1765549199.4597132,0,0,15261,1907.625
1765549199.4637191,1,0,8380,1047.500
1765549199.4677129,1,0,9113,1139.125
1765549199.471719,0,0,15379,1922.375
1765549199.4757197,0,0,17191,2148.875
1765549199.4797134,0,0,15511,1938.875
1765549199.4837193,1,0,8614,1076.750
1765549199.4877133,1,0,8918,1114.750
1765549199.4917212,0,0,15275,1909.375
1765549199.4960551,0,0,17163,2145.375
1765549199.499905,0,0,15726,1965.750
1765549199.5036979,1,0,8844,1105.500
1765549199.507657,1,0,8745,1093.125
1765549199.511654,0,0,15170,1896.250
1765549199.5156567,0,0,17134,2141.750
1765549199.5196548,0,0,16029,2003.625
1765549199.5236757,1,0,9356,1169.500
1765549199.5276685,1,0,8853,1106.625
1765549199.5316706,0,0,15141,1892.625
1765549199.535663,0,0,17122,2140.250
1765549199.5396643,0,0,16197,2024.625
1765549199.5436685,1,0,9529,1191.125
1765549199.5476654,1,0,8638,1079.750
1765549199.5516634,0,0,14999,1874.875
1765549199.5556777,0,0,17078,2134.750
1765549199.5596638,0,0,16363,2045.375
1765549199.5636683,1,0,9782,1222.750
1765549199.5676534,1,0,8533,1066.625
1765549199.5716531,0,0,14888,1861.000
1765549199.5756505,0,0,17042,2130.250
1765549199.5796497,0,0,16483,2060.375
1765549199.5836663,1,0,9885,1235.625
1765549199.5876637,1,0,8242,1030.250
1765549199.5916643,0,0,14695,1836.875
1765549199.5956545,0,0,16986,2123.250
1765549199.5996506,0,0,16620,2077.500
1765549199.6037583,1,0,10132,1266.500
1765549199.6076841,1,0,8131,1016.375
1765549199.6116757,0,0,14563,1820.375
1765549199.6156516,0,0,16946,2118.250
1765549199.6196492,0,0,16501,2062.625
1765549199.623669,1,0,9316,1164.500
1765549199.6276686,1,0,6810,851.250
1765549199.631673,0,0,13961,1745.125
1765549199.6356578,0,0,16796,2099.500
1765549199.6396487,0,0,16758,2094.750
1765549199.6436672,1,0,10188,1273.500
1765549199.6476662,1,0,7374,921.750
1765549199.65167,0,0,14059,1757.375
1765549199.6556675,0,0,16826,2103.250
1765549199.659662,0,0,16923,2115.375
1765549199.663668,1,0,10628,1328.500
1765549199.6676652,1,0,7479,934.875
1765549199.671667,0,0,13963,1745.375
1765549199.675671,0,0,16800,2100.000
1765549199.6796672,0,0,17027,2128.375
1765549199.6836708,1,0,10908,1363.500
1765549199.687665,1,0,7443,930.375
1765549199.6916723,0,0,13815,1726.875
1765549199.695671,0,0,16760,2095.000
1765549199.6996675,0,0,17114,2139.250
1765549199.7037094,1,0,11190,1398.750
1765549199.7076647,1,0,7372,921.500
1765549199.7116725,0,0,13617,1702.125
1765549199.7156734,0,0,16704,2088.000
1765549199.719668,0,0,17160,2145.000
1765549199.7236698,1,0,11337,1417.125
1765549199.727667,1,0,7168,896.000
1765549199.7316694,0,0,13352,1669.000
1765549199.7356708,0,0,16634,2079.250
1765549199.739668,0,0,17234,2154.250
1765549199.7436686,1,0,11775,1471.875
1765549199.7476654,1,0,7366,920.750
1765549199.7516656,0,0,13244,1655.500
1765549199.7556713,0,0,16602,2075.250
1765549199.7596667,0,0,17283,2160.375
1765549199.7636752,1,0,12054,1506.750
1765549199.767672,1,0,7361,920.125
1765549199.7716708,0,0,13036,1629.500
1765549199.7756536,0,0,16543,2067.875
1765549199.7796512,0,0,17306,2163.250
1765549199.7836723,1,0,12254,1531.750
1765549199.7876637,1,0,7276,909.500
1765549199.7916677,0,0,12759,1594.875
1765549199.7956524,0,0,16467,2058.375
1765549199.7996523,0,0,17273,2159.125
1765549199.8091216,1,0,6240,780.000
1765549199.8116946,0,0,11939,1492.375
1765549199.8156548,0,0,16258,2032.250
1765549199.8196504,0,0,17310,2163.750
1765549199.8236663,1,0,12707,1588.375
1765549199.8276665,1,0,7212,901.500
1765549199.8316674,0,0,12199,1524.875
1765549199.835648,0,0,16330,2041.250
1765549199.8396583,0,0,17358,2169.750
1765549199.8436544,1,0,13001,1625.125
1765549199.8476493,1,0,7302,912.750
1765549199.8516557,0,0,11934,1491.750
1765549199.8556674,0,0,16260,2032.500
1765549199.859666,0,0,17357,2169.625
1765549199.863673,1,0,13272,1659.000
1765549199.8676658,1,0,7383,922.875
1765549199.8716688,0,0,11659,1457.375
1765549199.8756707,0,0,16186,2023.250
1765549199.8796716,0,0,17351,2168.875
1765549199.8836603,1,0,13561,1695.125
1765549199.8876493,1,0,7533,941.625
1765549199.8916552,0,0,11375,1421.875
1765549199.8956642,0,0,16108,2013.500
1765549199.8996623,0,0,17338,2167.250
1765549199.903654,1,0,13810,1726.250
1765549199.9076838,1,0,7633,954.125
1765549199.9116557,0,0,11071,1383.875
1765549199.9156632,0,0,16020,2002.500
1765549199.9196727,0,0,17317,2164.625
1765549199.9236665,1,0,14085,1760.625
1765549199.9276636,1,0,7795,974.375
1765549199.9316685,0,0,10793,1349.125
1765549199.935676,0,0,15937,1992.125
1765549199.9396608,0,0,17298,2162.250
1765549199.943666,1,0,14414,1801.750
1765549199.9476635,1,0,8076,1009.500
1765549199.9516768,0,0,10611,1326.375
1765549199.9556668,0,0,15874,1984.250
1765549199.9596627,0,0,17278,2159.750
1765549199.9636652,1,0,14584,1823.000
1765549199.9676697,1,0,8087,1010.875
1765549199.9716656,0,0,10223,1277.875
1765549199.9756656,0,0,15749,1968.625
1765549199.9796615,0,0,17243,2155.375
1765549199.9836514,0,0,14168,1771.000
1765549199.9876454,1,0,6884,860.500
1765549199.9916518,0,0,8830,1103.750
1765549199.9956667,0,0,15342,1917.750
1765549199.999673,0,0,17151,2143.875
1765549200.003663,0,0,14923,1865.375
1765549200.0077314,1,0,8117,1014.625
1765549200.011701,0,0,9422,1177.750
1765549200.0156527,0,0,15493,1936.625
1765549200.0196466,0,0,17196,2149.500
1765549200.0236676,0,0,15243,1905.375
1765549200.0276616,1,0,8458,1057.250
1765549200.0316677,0,0,9301,1162.625
1765549200.035652,0,0,15423,1927.875
1765549200.0396495,0,0,15506,1938.250
1765549200.0436618,0,0,8763,1095.375
1765549200.0476468,1,0,9194,1149.250
1765549200.0516527,0,0,15352,1919.000
1765549200.0556638,0,0,17157,2144.625
1765549200.059664,0,0,15811,1976.375
1765549200.0636692,0,0,9253,1156.625
1765549200.0676603,1,0,9276,1159.500
1765549200.0716648,0,0,15324,1915.500
1765549200.0756664,0,0,17143,2142.875
1765549200.0796614,0,0,15990,1998.750
1765549200.0836663,0,0,9428,1178.500
1765549200.0876606,1,0,9075,1134.375
1765549200.0916646,0,0,15203,1900.375
1765549200.0956466,0,0,17103,2137.875
1765549200.0996468,0,0,16207,2025.875
1765549200.103664,0,0,9786,1223.250
1765549200.107664,1,0,9055,1131.875
1765549200.111678,0,0,15127,1890.875
1765549200.1156516,0,0,17072,2134.000
1765549200.1196463,0,0,16331,2041.375
1765549200.12366,0,0,9911,1238.875
1765549200.1276631,1,0,8809,1101.125
1765549200.1316628,0,0,14964,1870.500
1765549200.1356456,0,0,17020,2127.500
1765549200.1396434,0,0,16288,2036.000
1765549200.1436627,0,0,9423,1177.875
1765549200.147663,1,0,7923,990.375
1765549200.1516662,0,0,14581,1822.625
1765549200.15566,0,0,16919,2114.875
1765549200.159659,0,0,16327,2040.875
1765549200.1636631,0,0,9276,1159.500
1765549200.167662,1,0,7359,919.875
1765549200.1716623,0,0,14290,1786.250
1765549200.1756606,0,0,16850,2106.250
1765549200.179657,0,0,16641,2080.125
1765549200.1836634,0,0,10204,1275.500
1765549200.1876602,1,0,7978,997.250
1765549200.1916673,0,0,14418,1802.250
1765549200.1956654,0,0,16885,2110.625
1765549200.1996584,0,0,16831,2103.875
1765549200.2036622,0,0,10704,1338.000
1765549200.2077312,1,0,8152,1019.000
1765549200.21172,0,0,14369,1796.125
1765549200.215652,0,0,16865,2108.125
1765549200.2196414,0,0,16910,2113.750
1765549200.2236626,0,0,10832,1354.000
1765549200.227661,1,0,7921,990.125
1765549200.2316647,0,0,14155,1769.375
1765549200.235648,0,0,16802,2100.250
1765549200.2396433,0,0,16974,2121.750
1765549200.2436612,0,0,10977,1372.125
1765549200.247662,1,0,7705,963.125
1765549200.2516649,0,0,13930,1741.250
1765549200.255663,0,0,16738,2092.250
1765549200.2596567,0,0,17056,2132.000
1765549200.2636633,0,0,11265,1408.125
1765549200.2676675,1,0,7696,962.000
1765549200.271672,0,0,13800,1725.000
1765549200.27565,0,0,16700,2087.500
1765549200.2796416,0,0,17145,2143.125
1765549200.2836578,0,0,11711,1463.875
1765549200.2876582,1,0,7881,985.125
1765549200.2916627,0,0,13705,1713.125
1765549200.2956452,0,0,16667,2083.375
1765549200.2996438,0,0,17179,2147.375
1765549200.3036582,0,0,11818,1477.250
1765549200.3076565,1,0,7643,955.375
1765549200.311661,0,0,13406,1675.750
1765549200.3156624,0,0,16580,2072.500
1765549200.3196597,0,0,17125,2140.625
1765549200.3236647,0,0,11256,1407.000
1765549200.3276563,1,0,6496,812.000
1765549200.3316607,0,0,12654,1581.750
1765549200.3356571,0,0,16389,2048.625
1765549200.339658,0,0,17113,2139.125
1765549200.343652,0,0,11171,1396.375
1765549200.3476381,1,0,5955,744.375
1765549200.3516471,0,0,12130,1516.250
1765549200.3556612,0,0,16268,2033.500
1765549200.3596594,0,0,17217,2152.125
1765549200.3636613,0,0,12216,1527.000
1765549200.3676562,1,0,7018,877.250
1765549200.3716567,0,0,12449,1556.125
1765549200.3756573,0,0,16359,2044.875
1765549200.379657,0,0,17296,2162.000
1765549200.3836627,0,0,12702,1587.750
1765549200.3876565,1,0,7384,923.000
1765549200.3916597,0,0,12377,1547.125
1765549200.3956563,0,0,16340,2042.500
1765549200.399658,0,0,17319,2164.875
1765549200.4036627,0,0,13040,1630.000
1765549200.407729,1,0,7552,944.000
1765549200.4116771,0,0,12188,1523.500
1765549200.4156446,0,0,16286,2035.750
1765549200.41964,0,0,17324,2165.500
1765549200.4236581,0,0,13356,1669.500
1765549200.4276583,1,0,7729,966.125
1765549200.4316611,0,0,11976,1497.000
1765549200.4356446,0,0,16224,2028.000
1765549200.4396408,0,0,17315,2164.375
1765549200.4436588,0,0,13581,1697.625
1765549200.4476595,1,0,7774,971.750
1765549200.4516628,0,0,11663,1457.875
1765549200.4556603,0,0,16136,2017.000
1765549200.4596536,0,0,17295,2161.875
1765549200.463663,0,0,13789,1723.625
1765549200.4676576,1,0,7811,976.375
1765549200.4716659,0,0,11321,1415.125
1765549200.4756672,0,0,16039,2004.875
1765549200.4796538,0,0,17273,2159.125
1765549200.4836469,0,0,14167,1770.875
1765549200.4876432,1,0,8165,1020.625
1765549200.4916496,0,0,11210,1401.250
1765549200.4960208,0,0,16000,2000.000
1765549200.499812,0,0,17255,2156.875
1765549200.503682,0,0,13705,1713.125
1765549200.5076563,1,0,7009,876.125
1765549200.5116549,0,0,9964,1245.500
1765549200.5156562,0,0,15657,1957.125
1765549200.5196555,0,0,17177,2147.125
1765549200.5236511,0,0,13850,1731.250
1765549200.5276515,1,0,6889,861.125
1765549200.5316586,0,0,9450,1181.250
1765549200.5356557,0,0,15516,1939.500
1765549200.5396483,0,0,17161,2145.125
1765549200.5436423,0,0,14770,1846.250
1765549200.547638,1,0,8347,1043.375
1765549200.5516384,0,0,10196,1274.500
1765549200.5557663,0,0,15712,1964.000
1765549200.5596428,0,0,17214,2151.750
1765549200.563666,0,0,15339,1917.375
1765549200.5676537,1,0,9249,1156.125
1765549200.5716605,0,0,10573,1321.625
1765549200.5756555,0,0,15790,1973.750
1765549200.5796545,0,0,17222,2152.750
1765549200.5836558,0,0,15765,1970.625
1765549200.5876496,1,0,10015,1251.875
1765549200.5916562,0,0,10848,1356.000
1765549200.5956419,0,0,15823,1977.875
1765549200.59964,0,0,17208,2151.000
1765549200.603653,0,0,15999,1999.875
1765549200.6077383,1,0,10385,1298.125
1765549200.6116748,0,0,10838,1354.750
1765549200.6156838,0,0,15768,1971.000
1765549200.6196406,0,0,17166,2145.750
1765549200.6236567,0,0,16146,2018.250
1765549200.627654,1,0,10566,1320.750
1765549200.6316564,0,0,10661,1332.625
1765549200.6356442,0,0,15656,1957.000
1765549200.6396384,0,0,17110,2138.750
1765549200.6436605,0,0,16177,2022.125
1765549200.6476543,1,0,10449,1306.125
1765549200.6516588,0,0,10242,1280.250
1765549200.6556647,0,0,15470,1933.750
1765549200.6596572,0,0,17040,2130.000
1765549200.6636617,0,0,16316,2039.500
1765549200.6676652,1,0,10681,1335.125
1765549200.6716628,0,0,15358,1919.750
1765549200.675644,0,0,16990,2123.750
1765549200.6796374,0,0,16183,2022.875
1765549200.6836576,0,0,9948,1243.500
1765549200.687656,1,0,9032,1129.000
1765549200.691656,0,0,14941,1867.625
1765549200.695639,0,0,16872,2109.000
1765549200.6996381,0,0,16446,2055.750
1765549200.7036524,0,0,10692,1336.500
1765549200.707653,1,0,9452,1181.500
1765549200.7116575,0,0,15008,1876.000
1765549200.7156913,0,0,16879,2109.875
1765549200.7196507,0,0,16553,2069.125
1765549200.7236583,0,0,10825,1353.125
1765549200.727654,1,0,9257,1157.125
1765549200.7316554,0,0,14858,1857.250
1765549200.7356503,0,0,16827,2103.375
1765549200.7396507,0,0,16648,2081.000
1765549200.7436562,0,0,11038,1379.750
1765549200.7476518,1,0,9151,1143.875
1765549200.751655,0,0,14731,1841.375
1765549200.7556512,0,0,16782,2097.750
1765549200.7596507,0,0,16717,2089.625
1765549200.7636547,0,0,11133,1391.625
1765549200.7676513,1,0,8910,1113.750
1765549200.7716563,0,0,14545,1818.125
1765549200.7756524,0,0,16723,2090.375
1765549200.779649,0,0,16772,2096.500
1765549200.7836525,0,0,11227,1403.375
1765549200.7876513,1,0,8666,1083.250
1765549200.7916555,0,0,14347,1793.375
1765549200.7956557,0,0,16663,2082.875
1765549200.7996461,0,0,16834,2104.250
1765549200.803653,0,0,11402,1425.250
1765549200.8129864,0,0,14169,1771.125
1765549200.815685,0,0,16609,2076.125
1765549200.8196554,0,0,16877,2109.625
1765549200.8236477,0,0,11510,1438.750
1765549200.8276331,1,0,8298,1037.250
1765549200.831642,0,0,13955,1744.375
1765549200.8356552,0,0,16548,2068.500
1765549200.8396509,0,0,16924,2115.500
1765549200.8436418,0,0,11691,1461.375
1765549200.847636,1,0,8155,1019.375
1765549200.8516433,0,0,13752,1719.000
1765549200.855656,0,0,16490,2061.250
1765549200.8596528,0,0,16903,2112.875
1765549200.8636456,0,0,11337,1417.125
1765549200.867636,1,0,7311,913.875
1765549200.8716505,0,0,13219,1652.375
1765549200.8756561,0,0,16355,2044.375
1765549200.8796546,0,0,16976,2122.000
1765549200.8836546,0,0,11975,1496.875
1765549200.8876486,1,0,7787,973.375
1765549200.8916543,0,0,13256,1657.000
1765549200.8956544,0,0,16367,2045.875
1765549200.8996508,0,0,17024,2128.000
1765549200.903654,0,0,12175,1521.875
1765549200.9076507,1,0,7695,961.875
1765549200.9116592,0,0,13024,1628.000
1765549200.9156396,0,0,16306,2038.250
1765549200.9197068,0,0,17055,2131.875
1765549200.9236996,0,0,12500,1562.500
1765549200.9276936,1,0,7804,975.500
1765549200.9316962,0,0,12872,1609.000
1765549200.935673,0,0,16266,2033.250
1765549200.939674,0,0,17072,2134.000
1765549200.9436953,0,0,12669,1583.625
1765549200.947697,1,0,7696,962.000
1765549200.9516962,0,0,12575,1571.875
1765549200.9556942,0,0,16188,2023.500
1765549200.959695,0,0,17069,2133.625
1765549200.9637003,0,0,12702,1587.750
1765549200.9676962,1,0,7344,918.000
1765549200.9716964,0,0,12072,1509.000
1765549200.975694,0,0,16060,2007.500
1765549200.9796948,0,0,17048,2131.000
1765549200.9837,0,0,12625,1578.125
1765549200.9876947,1,0,6906,863.250
1765549200.991702,0,0,11524,1440.500
1765549200.9956954,0,0,15926,1990.750
1765549200.9996912,0,0,17054,2131.750
1765549201.003696,0,0,13195,1649.375
1765549201.007696,1,0,7487,935.875
1765549201.0117724,0,0,11571,1446.375
1765549201.0157087,0,0,15946,1993.250
1765549201.019677,0,0,17080,2135.000
1765549201.023648,0,0,13560,1695.000
1765549201.0276368,1,0,7757,969.625
1765549201.0316527,0,0,11417,1427.125
1765549201.0356567,0,0,15908,1988.500
1765549201.0396495,0,0,17070,2133.750
1765549201.0436435,0,0,13182,1647.750
1765549201.0476363,1,0,6774,846.750
1765549201.051642,0,0,10346,1293.250
1765549201.055655,0,0,15630,1953.750
1765549201.0596483,0,0,17023,2127.875
1765549201.0636394,0,0,13933,1741.625
1765549201.067633,1,0,7749,968.625
1765549201.0716424,0,0,10668,1333.500
1765549201.0756676,0,0,15720,1965.000
1765549201.0796564,0,0,17056,2132.000
1765549201.0836432,0,0,14316,1789.500
1765549201.0876315,1,0,8153,1019.125
1765549201.0916345,0,0,10618,1327.250
1765549201.0956323,0,0,15698,1962.250
1765549201.0996306,0,0,17051,2131.375
1765549201.103634,0,0,14609,1826.125
1765549201.1076307,1,0,8408,1051.000
1765549201.11164,0,0,10406,1300.750
1765549201.1156533,0,0,15622,1952.750
1765549201.1196644,0,0,17030,2128.750
1765549201.123653,0,0,14763,1845.375
1765549201.1276486,1,0,8410,1051.250
1765549201.1316516,0,0,10017,1252.125
1765549201.1356518,0,0,15493,1936.625
1765549201.139649,0,0,16995,2124.375
1765549201.1436477,0,0,15028,1878.500
1765549201.1476455,1,0,8676,1084.500
1765549201.151649,0,0,9847,1230.875
1765549201.155651,0,0,15418,1927.250
1765549201.1596484,0,0,16975,2121.875
1765549201.1636515,0,0,15166,1895.750
1765549201.1676462,1,0,8670,1083.750
1765549201.1716511,0,0,9459,1182.375
1765549201.1756513,0,0,15273,1909.125
1765549201.1796503,0,0,16937,2117.125
1765549201.183653,0,0,15399,1924.875
1765549201.1876476,1,0,8935,1116.875
1765549201.1916444,0,0,9328,1166.000
1765549201.195649,0,0,15198,1899.750
1765549201.1996477,0,0,16917,2114.625
1765549201.2036526,0,0,15549,1943.625
1765549201.2076454,1,0,8995,1124.375
1765549201.2117202,0,0,8997,1124.625
1765549201.215663,0,0,15049,1881.125
1765549201.219687,0,0,16877,2109.625
1765549201.2236433,0,0,15299,1912.375
1765549201.227629,1,0,7929,991.125
1765549201.2316382,0,0,7586,948.250
1765549201.2356493,0,0,14549,1818.625
1765549201.2396498,0,0,16762,2095.250
1765549201.243641,0,0,15820,1977.500
1765549201.2476335,1,0,9104,1138.000
1765549201.2516394,0,0,8326,1040.750
1765549201.255647,0,0,14735,1841.875
1765549201.2596471,0,0,16820,2102.500
1765549201.263649,0,0,16087,2010.875
1765549201.2676628,1,0,9565,1195.625
1765549201.2716565,0,0,8438,1054.750
1765549201.2756338,0,0,14707,1838.375
1765549201.2796302,0,0,16815,2101.875
1765549201.2836459,0,0,16263,2032.875
1765549201.287645,1,0,9874,1234.250
1765549201.2916512,0,0,8394,1049.250
1765549201.2956305,0,0,14611,1826.375
1765549201.2996266,0,0,16787,2098.375
1765549201.3036437,0,0,16418,2052.250
1765549201.307646,1,0,8276,1034.500
1765549201.3116477,0,0,14476,1809.500
1765549201.315645,0,0,16747,2093.375
1765549201.3196447,0,0,16537,2067.125
1765549201.3237529,0,0,10364,1295.500
1765549201.327693,1,0,8167,1020.875
1765549201.3316944,0,0,14339,1792.375
1765549201.3356893,0,0,16708,2088.500
1765549201.339687,0,0,16624,2078.000
1765549201.343678,0,0,10482,1310.250
1765549201.3476737,1,0,7920,990.000
1765549201.3516812,0,0,14132,1766.500
1765549201.3556912,0,0,16650,2081.250
1765549201.3596876,0,0,16745,2093.125
1765549201.363693,0,0,10868,1358.500
1765549201.3676875,1,0,8007,1000.875
1765549201.3716938,0,0,14056,1757.000
1765549201.375692,0,0,16627,2078.375
1765549201.3796885,0,0,16828,2103.500
1765549201.383693,0,0,11075,1384.375
1765549201.387689,1,0,7892,986.500
1765549201.3916929,0,0,13878,1734.750
1765549201.3956916,0,0,16575,2071.875
1765549201.3996868,0,0,16802,2100.250
1765549201.4036918,0,0,10673,1334.125
1765549201.4076867,1,0,6989,873.625
1765549201.4117684,0,0,13343,1667.875
1765549201.4157088,0,0,16439,2054.875
1765549201.419692,0,0,16914,2114.250
1765549201.4236996,0,0,11320,1415.000
1765549201.4276292,1,0,7431,928.875
1765549201.4316401,0,0,13382,1672.750
1765549201.4356496,0,0,16451,2056.375
1765549201.4396472,0,0,16999,2124.875
1765549201.443637,0,0,11678,1459.750
1765549201.4476264,1,0,7518,939.750
1765549201.4516354,0,0,13246,1655.750
1765549201.4556463,0,0,16415,2051.875
1765549201.4596417,0,0,17039,2129.875
1765549201.4636447,0,0,11861,1482.625
1765549201.4676416,1,0,7387,923.375
1765549201.4716456,0,0,12987,1623.375
1765549201.47563,0,0,16345,2043.125
1765549201.479628,0,0,17070,2133.750
1765549201.4836445,0,0,12130,1516.250
1765549201.4876404,1,0,7386,923.250
1765549201.4916463,0,0,12762,1595.250
1765549201.4960194,0,0,16285,2035.625
1765549201.499808,0,0,17091,2136.375
1765549201.503683,0,0,12347,1543.375
1765549201.5076416,1,0,7366,920.750
1765549201.511644,0,0,12526,1565.750
1765549201.5156434,0,0,16223,2027.875
1765549201.5196414,0,0,17107,2138.375
1765549201.5236866,0,0,12556,1569.500
1765549201.5276437,1,0,7282,910.250
1765549201.531643,0,0,12188,1523.500
1765549201.5356407,0,0,16137,2017.125
1765549201.5396419,0,0,17101,2137.625
1765549201.543646,0,0,12557,1569.625
1765549201.5476415,1,0,6921,865.125
1765549201.5516386,0,0,11678,1459.750
1765549201.555772,0,0,16008,2001.000
1765549201.5596282,0,0,17097,2137.125
1765549201.5636282,0,0,12772,1596.500
1765549201.5676277,1,0,6908,863.500
1765549201.571626,0,0,11341,1417.625
1765549201.5756266,0,0,15928,1991.000
1765549201.579625,0,0,17066,2133.250
1765549201.5836282,0,0,12005,1500.625
1765549201.5876272,1,0,5328,666.000
1765549201.5916355,0,0,9899,1237.375
1765549201.5956285,0,0,15568,1946.000
1765549201.5996242,0,0,17040,2130.000
1765549201.6036284,0,0,12927,1615.875
1765549201.607627,1,0,6433,804.125
1765549201.6117146,0,0,10268,1283.500
1765549201.615643,0,0,15685,1960.625
1765549201.6196265,0,0,17107,2138.375
1765549201.623626,0,0,13486,1685.750
1765549201.6276672,1,0,7013,876.625
1765549201.631637,0,0,10287,1285.875
1765549201.6356454,0,0,15695,1961.875
1765549201.6396396,0,0,17126,2140.750
1765549201.6436334,0,0,13795,1724.375
1765549201.647625,1,0,7181,897.625
1765549201.6516342,0,0,9983,1247.875
1765549201.655647,0,0,15610,1951.250
1765549201.6596406,0,0,17114,2139.250
1765549201.6636426,0,0,14081,1760.125
1765549201.6676414,1,0,7385,923.125
1765549201.6716435,0,0,9737,1217.125
1765549201.6756663,0,0,15533,1941.625
1765549201.6796494,0,0,17102,2137.750
1765549201.6836345,0,0,14414,1801.750
1765549201.687623,1,0,7677,959.625
1765549201.69163,0,0,9556,1194.500
1765549201.6956444,0,0,15467,1933.375
1765549201.6996408,0,0,17090,2136.250
1765549201.7036304,0,0,14664,1833.000
1765549201.707624,1,0,7847,980.875
1765549201.7116365,0,0,9282,1160.250
1765549201.7156436,0,0,15366,1920.750
1765549201.7196395,0,0,17068,2133.500
1765549201.7236433,0,0,14936,1867.000
1765549201.7276545,1,0,8101,1012.625
1765549201.7316442,0,0,9104,1138.000
1765549201.7356439,0,0,15286,1910.750
1765549201.7396402,0,0,17051,2131.375
1765549201.7436395,0,0,15198,1899.750
1765549201.7476377,1,0,8369,1046.125
1765549201.75164,0,0,8941,1117.625
1765549201.755643,0,0,15200,1900.000
1765549201.7596397,0,0,17029,2128.625
1765549201.7636447,0,0,14775,1846.875
1765549201.7676375,1,0,6906,863.250
1765549201.7716413,0,0,7164,895.500
1765549201.7756426,0,0,14608,1826.000
1765549201.7796407,0,0,16894,2111.750
1765549201.783644,0,0,15409,1926.125
1765549201.787638,1,0,8138,1017.250
1765549201.791638,0,0,7892,986.500
1765549201.795639,0,0,14797,1849.625
1765549201.7996392,0,0,16958,2119.750
1765549201.8036442,0,0,15746,1968.250
1765549201.807641,1,0,8641,1080.125
1765549201.8170133,0,0,16953,2119.125
1765549201.819658,0,0,16953,2119.125
1765549201.8236442,0,0,15900,1987.500
1765549201.8276396,1,0,8745,1093.125
1765549201.8316336,0,0,7698,962.250
1765549201.8356397,0,0,14599,1824.875
1765549201.8396425,0,0,16916,2114.500
1765549201.8436337,0,0,16151,2018.875
1765549201.8476229,1,0,9182,1147.750
1765549201.8516316,0,0,7723,965.375
1765549201.8556404,0,0,14520,1815.000
1765549201.8596382,0,0,16897,2112.125
1765549201.8636422,0,0,16306,2038.250
1765549201.86764,1,0,9368,1171.000
1765549201.8716412,0,0,7538,942.250
1765549201.87564,0,0,14368,1796.000
1765549201.8796337,0,0,16858,2107.250
1765549201.8836446,0,0,16489,2061.125
1765549201.887639,1,0,9750,1218.750
1765549201.8916416,0,0,7567,945.875
1765549201.8956354,0,0,14279,1784.875
1765549201.8996341,0,0,16835,2104.375
1765549201.9036417,0,0,16674,2084.250
1765549201.9076383,1,0,10206,1275.750
1765549201.9116359,0,0,7677,959.625
1765549201.9156375,0,0,14204,1775.500
1765549201.9196353,0,0,16811,2101.375
1765549201.9236388,0,0,16745,2093.125
1765549201.927635,1,0,10225,1278.125
1765549201.931747,0,0,13937,1742.125
1765549201.935682,0,0,13937,1742.125
1765549201.9396768,0,0,16608,2076.000
1765549201.9436839,0,0,9288,1161.000
1765549201.947679,1,0,5824,728.000
1765549201.9516866,0,0,13187,1648.375
1765549201.9556916,0,0,16555,2069.375
1765549201.9596803,0,0,16339,2042.375
1765549201.9636705,0,0,7745,968.125
1765549201.9676595,1,0,3512,439.000
1765549201.9716675,0,0,12008,1501.000
1765549201.9756794,0,0,16289,2036.125
1765549201.97968,0,0,16927,2115.875
1765549201.9836707,0,0,10606,1325.750
1765549201.9876578,1,0,6548,818.500
1765549201.9916704,1,0,13202,1650.250
1765549201.995682,0,0,16623,2077.875
1765549201.9996822,0,0,17192,2149.000
1765549202.0036845,0,0,11487,1435.875
1765549202.0076778,1,0,7289,911.125
1765549202.0116887,1,0,13365,1670.625
1765549202.0157573,0,0,16661,2082.625
1765549202.0196931,0,0,17297,2162.125
1765549202.0236716,0,0,12120,1515.000
1765549202.0276613,1,0,7855,981.875
1765549202.0317552,1,0,13460,1682.500
1765549202.0356505,0,0,16671,2083.875
1765549202.0396392,0,0,17366,2170.750
1765549202.043634,0,0,12746,1593.250
1765549202.0476184,1,0,8392,1049.000
1765549202.051628,1,0,13517,1689.625
1765549202.0556378,0,0,16663,2082.875
1765549202.0596356,0,0,17379,2172.375
1765549202.0636303,0,0,12966,1620.750
1765549202.0676186,1,0,8392,1049.000
1765549202.0716252,1,0,13301,1662.625
1765549202.0756357,0,0,16584,2073.000
1765549202.0796375,0,0,17372,2171.500
1765549202.0836287,0,0,13329,1666.125
1765549202.087615,1,0,8604,1075.500
1765549202.0916188,1,0,13170,1646.250
1765549202.095619,0,0,16524,2065.500
1765549202.0996203,0,0,17353,2169.125
1765549202.1036303,0,0,13480,1685.000
1765549202.1076348,1,0,8516,1064.500
1765549202.1116366,0,0,12867,1608.375
1765549202.1156366,0,0,16424,2053.000
1765549202.1196387,0,0,17302,2162.750
1765549202.1236393,0,0,13080,1635.000
1765549202.127633,1,0,7569,946.125
1765549202.1316512,1,0,12025,1503.125
1765549202.1356368,0,0,16193,2024.125
1765549202.1396363,0,0,17264,2158.000
1765549202.14364,0,0,13767,1720.875
1765549202.1476314,1,0,8370,1046.250
1765549202.1516304,1,0,12199,1524.875
1765549202.1556315,0,0,16228,2028.500
1765549202.159633,0,0,17271,2158.875
1765549202.1636226,0,0,14113,1764.125
1765549202.1676164,1,0,8671,1083.875
1765549202.1716273,1,0,12071,1508.875
1765549202.1756349,0,0,16177,2022.125
1765549202.1796324,0,0,17246,2155.750
1765549202.183637,0,0,14375,1796.875
1765549202.1876357,1,0,8856,1107.000
1765549202.1916351,1,0,11873,1484.125
1765549202.1956344,0,0,16106,2013.250
1765549202.1996334,0,0,17212,2151.500
1765549202.2036355,0,0,14647,1830.875
1765549202.2076342,1,0,9106,1138.250
1765549202.211637,1,0,11702,1462.750
1765549202.215712,0,0,16039,2004.875
1765549202.2196457,0,0,17178,2147.250
1765549202.2236333,0,0,14852,1856.500
1765549202.2276208,1,0,9255,1156.875
1765549202.2316256,1,0,11454,1431.750
1765549202.2356374,0,0,15947,1993.375
1765549202.2396317,0,0,17137,2142.125
1765549202.2436252,0,0,15077,1884.625
1765549202.2476168,1,0,9457,1182.125
1765549202.2516248,1,0,11262,1407.750
1765549202.2556353,0,0,15868,1983.500
1765549202.2596326,0,0,17100,2137.500
1765549202.2636354,0,0,15194,1899.250
1765549202.2676313,1,0,9454,1181.750
1765549202.2716293,1,0,10932,1366.500
1765549202.2756355,0,0,15749,1968.625
1765549202.2796338,0,0,17055,2131.875
1765549202.2836335,0,0,15393,1924.125
1765549202.287634,1,0,9640,1205.000
1765549202.29164,1,0,10718,1339.750
1765549202.2956178,0,0,15653,1956.625
1765549202.2996166,0,0,17016,2127.000
1765549202.303632,0,0,15074,1884.250
1765549202.3076298,1,0,8557,1069.625
1765549202.3116283,1,0,9431,1178.875
1765549202.3156192,0,0,15248,1906.000
1765549202.319618,0,0,16911,2113.875
1765549202.3236358,0,0,15593,1949.125
1765549202.3276317,1,0,9589,1198.625
1765549202.3316367,1,0,9963,1245.375
