Timestamp,LO_plus,LO_minus,Raw_ADC,Voltage_mV
1764838516.3714552,0,0,11926,1490.750
1764838516.3732574,0,0,11926,1490.750
1764838516.374965,1,1,13423,1677.875
1764838516.3776243,1,1,13423,1677.875
1764838516.3816366,0,0,13002,1625.250
1764838516.3856115,0,0,7019,877.375
1764838516.3896403,0,0,7782,972.750
1764838516.393634,0,0,13439,1679.875
1764838516.3976107,1,1,13521,1690.125
1764838516.40162,0,0,7603,950.375
1764838516.405619,0,0,8257,1032.125
1764838516.409619,0,0,10900,1362.500
1764838516.4136224,0,0,13391,1673.875
1764838516.4176202,1,1,13508,1688.500
1764838516.421619,0,0,7108,888.500
1764838516.4256098,0,0,7602,950.250
1764838516.4296196,0,0,10582,1322.750
1764838516.4336653,0,0,13342,1667.750
1764838516.4376247,1,1,13701,1712.625
1764838516.4416249,0,0,6736,842.000
1764838516.4456112,0,0,6888,861.000
1764838516.4496088,0,0,10189,1273.625
1764838516.4536185,0,0,13262,1657.750
1764838516.4576175,1,1,13896,1737.000
1764838516.4616573,0,0,7943,992.875
1764838516.4656136,0,0,8108,1013.500
1764838516.469609,0,0,10706,1338.250
1764838516.473617,0,0,13238,1654.750
1764838516.4776177,1,1,13795,1724.375
1764838516.4816265,0,0,6991,873.875
1764838516.485609,0,0,6677,834.625
1764838516.4896502,0,0,9949,1243.625
1764838516.4936228,0,0,13096,1637.000
1764838516.497608,1,1,14014,1751.750
1764838516.5016174,0,0,7658,957.250
1764838516.505616,0,0,7190,898.750
1764838516.5096152,0,0,10160,1270.000
1764838516.5136151,0,0,13065,1633.125
1764838516.5176086,1,1,14003,1750.375
1764838516.521655,0,0,7222,902.750
1764838516.5256135,0,0,6204,775.500
1764838516.5296066,0,0,9586,1198.250
1764838516.5336177,0,0,12937,1617.125
1764838516.537615,1,1,14169,1771.125
1764838516.5417051,0,0,7692,961.500
1764838516.545629,0,0,6286,785.750
1764838516.5496123,0,0,9517,1189.625
1764838516.553669,0,0,12818,1602.250
1764838516.5576208,1,1,14211,1776.375
1764838516.5616174,0,0,8751,1093.875
1764838516.5656695,0,0,7692,961.500
1764838516.5696228,0,0,10259,1282.375
1764838516.5736125,0,0,12878,1609.750
1764838516.5776067,1,1,14025,1753.125
1764838516.5816538,0,0,8584,1073.000
1764838516.5856118,0,0,7352,919.000
1764838516.5896053,0,0,10065,1258.125
1764838516.5936186,0,0,12817,1602.125
1764838516.5976145,1,1,14078,1759.750
1764838516.601616,0,0,7372,921.500
1764838516.6056054,0,0,5652,706.500
1764838516.6096048,0,0,9235,1154.375
1764838516.6136153,0,0,12729,1591.125
1764838516.6176147,1,1,14339,1792.375
1764838516.621623,0,0,8562,1070.250
1764838516.6256566,0,0,6347,793.375
1764838516.6296215,0,0,9383,1172.875
1764838516.633617,0,0,12574,1571.750
1764838516.6376073,1,1,14221,1777.625
1764838516.6416209,0,0,9197,1149.625
1764838516.6456141,0,0,7195,899.375
1764838516.6496146,0,0,9846,1230.750
1764838516.6536102,0,0,12604,1575.500
1764838516.6576056,1,1,14129,1766.125
1764838516.66162,0,0,9494,1186.750
1764838516.665652,0,0,7117,889.625
1764838516.6696215,0,0,9691,1211.375
1764838516.6736205,0,0,12482,1560.250
1764838516.6776066,1,1,14112,1764.000
1764838516.681614,0,0,9750,1218.750
1764838516.6856132,0,0,7646,955.750
1764838516.6896498,0,0,10032,1254.000
1764838516.6937113,0,0,12531,1566.375
1764838516.69761,1,1,14074,1759.250
1764838516.701624,0,0,9930,1241.250
1764838516.7056134,0,0,7327,915.875
1764838516.7096128,0,0,9725,1215.625
1764838516.7136106,0,0,12372,1546.500
1764838516.7176054,1,1,14078,1759.750
1764838516.72166,0,0,10036,1254.500
1764838516.7256098,0,0,6707,838.375
1764838516.7296042,0,0,9186,1148.250
1764838516.7336113,0,0,12145,1518.125
1764838516.737614,1,1,14100,1762.500
1764838516.7416122,0,0,10422,1302.750
1764838516.7456033,0,0,7751,968.875
1764838516.7496023,0,0,9951,1243.875
1764838516.7536156,0,0,12336,1542.000
1764838516.757615,1,1,14017,1752.125
1764838516.7616198,0,0,10432,1304.000
1764838516.7657084,0,0,7310,913.750
1764838516.7696307,0,0,9583,1197.875
1764838516.7736146,0,0,12187,1523.375
1764838516.7776046,1,1,14032,1754.000
1764838516.7816606,0,0,10184,1273.000
1764838516.7856107,0,0,5676,709.500
1764838516.7896025,0,0,8307,1038.375
1764838516.7936137,0,0,11753,1469.125
1764838516.7976124,1,1,14133,1766.625
1764838516.8016143,0,0,11115,1389.375
1764838516.8056045,0,0,7604,950.500
1764838516.8096025,0,0,9620,1202.500
1764838516.813608,0,0,12054,1506.750
1764838516.8176029,1,1,13933,1741.625
1764838516.8216126,0,0,10793,1349.125
1764838516.8256133,0,0,6638,829.750
1764838516.829611,0,0,8976,1122.000
1764838516.833616,0,0,11873,1484.125
1764838516.8376124,1,1,14014,1751.750
1764838516.8416166,0,0,11491,1436.375
1764838516.8456535,0,0,8122,1015.250
1764838516.849616,0,0,9927,1240.875
1764838516.8536105,0,0,12069,1508.625
1764838516.8576026,1,1,13854,1731.750
1764838516.8616102,0,0,11199,1399.875
1764838516.8657196,0,0,6614,826.750
1764838516.8696873,0,0,8752,1094.000
1764838516.8736846,0,0,11676,1459.500
1764838516.8776753,1,1,13936,1742.000
1764838516.8816922,0,0,11545,1443.125
1764838516.8856907,0,0,6726,840.750
1764838516.889688,0,0,8693,1086.625
1764838516.8937254,0,0,11581,1447.625
1764838516.897711,1,1,13887,1735.875
1764838516.9016917,0,0,11630,1453.750
1764838516.9057121,0,0,6177,772.125
1764838516.909677,0,0,8159,1019.875
1764838516.9136753,0,0,11341,1417.625
1764838516.9176984,1,1,13869,1733.625
1764838516.9217064,0,0,12037,1504.625
1764838516.9256907,0,0,7177,897.125
1764838516.9296846,0,0,8891,1111.375
1764838516.9336867,0,0,11537,1442.125
1764838516.9376886,1,1,13782,1722.750
1764838516.941687,0,0,12331,1541.375
1764838516.945675,0,0,8436,1054.500
1764838516.9497669,0,0,9962,1245.250
1764838516.9536934,0,0,11905,1488.125
1764838516.9576745,1,1,13701,1712.625
1764838516.961689,0,0,12201,1525.125
1764838516.9658818,0,0,6872,859.000
1764838516.9697797,0,0,8466,1058.250
1764838516.973792,0,0,11296,1412.000
1764838516.9777534,1,1,13711,1713.875
1764838516.9817545,0,0,12386,1548.250
1764838516.9857488,0,0,6510,813.750
1764838516.9897451,0,0,8217,1027.125
1764838516.993778,0,0,11220,1402.500
1764838516.997764,1,1,13728,1716.000
1764838517.0017662,0,0,12794,1599.250
1764838517.0057483,0,0,7326,915.750
1764838517.009742,0,0,8599,1074.875
1764838517.0137627,0,0,11225,1403.125
1764838517.0177624,1,1,13592,1699.000
1764838517.021801,0,0,12817,1602.125
1764838517.0258064,0,0,6814,851.750
1764838517.0297668,0,0,8053,1006.625
1764838517.0337505,0,0,10978,1372.250
1764838517.0377414,1,1,13581,1697.625
1764838517.0417588,0,0,13070,1633.750
1764838517.0457644,0,0,7143,892.875
1764838517.0497618,0,0,8279,1034.875
1764838517.0537505,0,0,11033,1379.125
1764838517.0577419,1,1,13518,1689.750
1764838517.0617554,0,0,13193,1649.125
1764838517.0658276,0,0,8245,1030.625
1764838517.0697029,0,0,9493,1186.625
1764838517.0737255,0,0,11563,1445.375
1764838517.0777717,1,1,13495,1686.875
1764838517.081731,0,0,13152,1644.000
1764838517.085704,0,0,8504,1063.000
1764838517.0897152,0,0,9697,1212.125
1764838517.093767,0,0,11632,1454.000
1764838517.0977223,1,1,13460,1682.500
1764838517.10172,0,0,13285,1660.625
1764838517.1057184,0,0,8319,1039.875
1764838517.109716,0,0,9355,1169.375
1764838517.1137052,0,0,11445,1430.625
1764838517.117698,1,1,13418,1677.250
1764838517.1217594,0,0,13382,1672.750
1764838517.1257327,0,0,7117,889.625
1764838517.1297176,0,0,7843,980.375
1764838517.1337113,0,0,10729,1341.125
1764838517.137699,1,1,13349,1668.625
1764838517.1417167,0,0,13757,1719.625
1764838517.145715,0,0,8763,1095.375
1764838517.1497312,0,0,9465,1183.125
1764838517.1537802,0,0,11407,1425.875
1764838517.1577199,1,1,13304,1663.000
1764838517.1617181,0,0,13607,1700.875
1764838517.1657758,0,0,8077,1009.625
1764838517.169766,0,0,8471,1058.875
1764838517.1737432,0,0,10908,1363.500
1764838517.1776993,1,1,13222,1652.750
1764838517.1817288,0,0,13786,1723.250
1764838517.1857023,0,0,8040,1005.000
1764838517.1896994,0,0,8157,1019.625
1764838517.1937182,0,0,10710,1338.750
1764838517.1977131,1,1,13167,1645.875
1764838517.2017832,0,0,13867,1733.375
1764838517.205726,0,0,8085,1010.625
1764838517.209715,0,0,8077,1009.625
1764838517.213705,0,0,10625,1328.125
1764838517.2176974,1,1,13073,1634.125
1764838517.221712,0,0,13916,1739.500
1764838517.2257147,0,0,8496,1062.000
1764838517.229715,0,0,8353,1044.125
1764838517.2337062,0,0,10766,1345.750
1764838517.2376983,1,1,13065,1633.125
1764838517.2418058,0,0,13944,1743.000
1764838517.2460601,0,0,9302,1162.750
1764838517.2497892,0,0,9450,1181.250
1764838517.2537258,0,0,11329,1416.125
1764838517.257713,1,1,13101,1637.625
1764838517.2617247,0,0,13846,1730.750
1764838517.2657533,0,0,9110,1138.750
1764838517.2697737,0,0,9051,1131.375
1764838517.273721,0,0,11124,1390.500
1764838517.277713,1,1,13059,1632.375
1764838517.2817583,0,0,13903,1737.875
1764838517.2857373,0,0,7770,971.250
1764838517.289717,0,0,6533,816.625
1764838517.2937171,0,0,9705,1213.125
1764838517.2977116,1,1,12786,1598.250
1764838517.3017163,0,0,14220,1777.500
1764838517.3057146,0,0,9540,1192.500
1764838517.309818,0,0,8697,1087.125
1764838517.314546,0,0,12849,1606.125
1764838517.3177872,1,1,12849,1606.125
1764838517.3217263,0,0,13957,1744.625
1764838517.3256981,0,0,9537,1192.125
1764838517.3297007,0,0,8634,1079.250
1764838517.3337166,0,0,10755,1344.375
1764838517.337713,1,1,12815,1601.875
1764838517.341709,0,0,13970,1746.250
1764838517.3456957,0,0,9216,1152.000
1764838517.3496974,0,0,7748,968.500
1764838517.353729,0,0,10253,1281.625
1764838517.3577602,1,1,12691,1586.375
1764838517.3617258,0,0,14061,1757.625
1764838517.3713365,0,0,11631,1453.875
1764838517.3737137,0,0,11631,1453.875
1764838517.3777008,1,1,12893,1611.625
1764838517.3817053,0,0,13809,1726.125
1764838517.3856964,0,0,9707,1213.375
1764838517.3896983,0,0,7975,996.875
1764838517.3937724,0,0,10279,1284.875
1764838517.3977082,1,1,12579,1572.375
1764838517.4017172,0,0,14031,1753.875
1764838517.405712,0,0,9730,1216.250
1764838517.40971,0,0,7242,905.250
1764838517.4137166,0,0,9748,1218.500
1764838517.417716,1,1,12395,1549.375
1764838517.4217122,0,0,14085,1760.625
1764838517.4256957,0,0,10314,1289.250
1764838517.4296992,0,0,8123,1015.375
1764838517.4337122,0,0,10261,1282.625
1764838517.4377003,1,1,12450,1556.250
1764838517.4417162,0,0,13978,1747.250
1764838517.445766,0,0,10234,1279.250
1764838517.4497223,0,0,7633,954.125
1764838517.4537108,0,0,9919,1239.875
1764838517.4576979,1,1,12332,1541.500
1764838517.4617267,0,0,14016,1752.000
1764838517.4657614,0,0,9927,1240.875
1764838517.4697216,0,0,6452,806.500
1764838517.4737475,0,0,12119,1514.875
1764838517.4776998,1,1,12119,1514.875
1764838517.4817624,0,0,10844,1355.500
1764838517.4857352,0,0,8060,1007.500
1764838517.4897103,0,0,10126,1265.750
1764838517.4937074,0,0,12290,1536.250
1764838517.4976995,1,1,13933,1741.625
1764838517.5017111,0,0,11175,1396.875
1764838517.5057085,0,0,9029,1128.625
1764838517.509709,0,0,10826,1353.250
1764838517.5137064,0,0,12476,1559.500
1764838517.5176969,1,1,13856,1732.000
1764838517.5217166,0,0,10991,1373.875
1764838517.525753,0,0,7669,958.625
1764838517.529736,0,0,9720,1215.000
1764838517.5337121,0,0,12068,1508.500
1764838517.5376983,1,1,13908,1738.500
1764838517.5417101,0,0,11480,1435.000
1764838517.5457103,0,0,8858,1107.250
1764838517.5497093,0,0,10615,1326.875
1764838517.5537055,0,0,12322,1540.250
1764838517.5576968,1,1,13811,1726.375
1764838517.56171,0,0,11449,1431.125
1764838517.5656931,0,0,8593,1074.125
1764838517.5697777,0,0,10437,1304.625
1764838517.57382,0,0,12252,1531.500
1764838517.5777237,1,1,13819,1727.375
1764838517.581714,0,0,11575,1446.875
1764838517.585693,0,0,8140,1017.500
1764838517.589694,0,0,9984,1248.000
1764838517.5937283,0,0,12054,1506.750
1764838517.5977142,1,1,13812,1726.500
1764838517.6017714,0,0,11775,1471.875
1764838517.6057405,0,0,7589,948.625
1764838517.6097112,0,0,9357,1169.625
1764838517.6137128,0,0,11744,1468.000
1764838517.6177125,1,1,13769,1721.125
1764838517.6217136,0,0,11988,1498.500
1764838517.6257076,0,0,7909,988.625
1764838517.6297095,0,0,9631,1203.875
1764838517.633706,0,0,11826,1478.250
1764838517.6376975,1,1,13740,1717.500
1764838517.6417184,0,0,12140,1517.500
1764838517.6457512,0,0,7516,939.500
1764838517.6497252,0,0,9128,1141.000
1764838517.653711,0,0,11570,1446.250
1764838517.6576967,1,1,13710,1713.750
1764838517.6617553,0,0,12106,1513.250
1764838517.665744,0,0,7170,896.250
1764838517.6697133,0,0,8943,1117.875
1764838517.6737592,0,0,11537,1442.125
1764838517.6777112,1,1,13734,1716.750
1764838517.6817536,0,0,12539,1567.375
1764838517.685732,0,0,7933,991.625
1764838517.6897125,0,0,9371,1171.375
1764838517.6937094,0,0,11592,1449.000
1764838517.6977072,1,1,13623,1702.875
1764838517.701711,0,0,12519,1564.875
1764838517.7057045,0,0,7118,889.750
1764838517.709704,0,0,8664,1083.000
1764838517.71371,0,0,11330,1416.250
1764838517.717708,1,1,13650,1706.250
1764838517.7217069,0,0,12727,1590.875
1764838517.7257106,0,0,7037,879.625
1764838517.729757,0,0,8544,1068.000
1764838517.7337098,0,0,11262,1407.750
1764838517.737696,1,1,13619,1702.375
1764838517.7417092,0,0,13035,1629.375
1764838517.745743,0,0,7220,902.500
1764838517.7497318,0,0,8401,1050.125
1764838517.7537093,0,0,11097,1387.125
1764838517.757694,1,1,13523,1690.375
1764838517.7617252,0,0,13221,1652.625
1764838517.7657197,0,0,8090,1011.250
1764838517.7697933,0,0,9101,1137.625
1764838517.7737672,0,0,11323,1415.375
1764838517.777733,1,1,13446,1680.750
1764838517.7817106,0,0,13181,1647.625
1764838517.7856932,0,0,7257,907.125
1764838517.7896912,0,0,8351,1043.875
1764838517.7937229,0,0,11043,1380.375
1764838517.797712,1,1,13457,1682.125
1764838517.8017285,0,0,13460,1682.500
1764838517.8057454,0,0,7212,901.500
1764838517.8096948,0,0,7898,987.250
1764838517.8136947,0,0,10730,1341.250
1764838517.817695,1,1,13350,1668.750
1764838517.821709,0,0,13684,1710.500
1764838517.8257093,0,0,7707,963.375
1764838517.8297043,0,0,8183,1022.875
1764838517.8337023,0,0,10783,1347.875
1764838517.837695,1,1,13274,1659.250
1764838517.8417087,0,0,13632,1704.000
1764838517.8457491,0,0,7353,919.125
1764838517.849733,0,0,7939,992.375
1764838517.8537042,0,0,10730,1341.250
1764838517.8576908,1,1,13298,1662.250
1764838517.8617098,0,0,13784,1723.000
1764838517.8657093,0,0,8083,1010.375
1764838517.869706,0,0,8484,1060.500
1764838517.873703,0,0,10906,1363.250
1764838517.8777292,1,1,13216,1652.000
1764838517.881707,0,0,13795,1724.375
1764838517.8857667,0,0,7774,971.750
1764838517.8897262,0,0,7838,979.750
1764838517.8937032,0,0,10545,1318.125
1764838517.8976915,0,0,13140,1642.500
1764838517.9016976,0,0,13916,1739.500
1764838517.905691,0,0,7568,946.000
1764838517.9096916,0,0,7504,938.000
1764838517.9137669,0,0,10393,1299.125
1764838517.9177155,0,0,13119,1639.875
1764838517.9217126,0,0,13991,1748.875
1764838517.925693,0,0,7677,959.625
1764838517.9296927,0,0,7275,909.375
1764838517.9337082,0,0,10196,1274.500
1764838517.937705,0,0,13005,1625.625
1764838517.9417033,0,0,14091,1761.375
1764838517.9457636,0,0,9049,1131.125
1764838517.9497175,0,0,8960,1120.000
1764838517.953697,0,0,11041,1380.125
1764838517.9576888,0,0,13051,1631.375
1764838517.9617035,0,0,13890,1736.250
1764838517.9657073,0,0,8414,1051.750
1764838517.9697726,0,0,7844,980.500
1764838517.9737856,0,0,10452,1306.500
1764838517.9777582,0,0,12949,1618.625
1764838517.9817107,0,0,14056,1757.000
1764838517.985693,0,0,9400,1175.000
1764838517.9896903,0,0,9313,1164.125
1764838517.9937203,0,0,11276,1409.500
1764838517.9977086,0,0,13042,1630.250
1764838518.0017042,0,0,13910,1738.750
1764838518.005761,0,0,8551,1068.875
1764838518.009703,0,0,7505,938.125
1764838518.0136898,0,0,10224,1278.000
1764838518.0176916,0,0,12814,1601.750
1764838518.0217066,0,0,14121,1765.125
1764838518.0257072,0,0,9706,1213.250
1764838518.0297036,0,0,9089,1136.125
1764838518.033694,0,0,11079,1384.875
1764838518.0376885,0,0,12905,1613.125
1764838518.0417006,0,0,13946,1743.250
1764838518.045708,0,0,8109,1013.625
1764838518.049749,0,0,6112,764.000
1764838518.0536997,0,0,9401,1175.125
1764838518.0576878,0,0,12602,1575.250
1764838518.0617034,0,0,14278,1784.750
1764838518.065705,0,0,8760,1095.000
1764838518.0697052,0,0,6332,791.500
1764838518.0738254,0,0,9361,1170.125
1764838518.0777194,0,0,12473,1559.125
1764838518.0817015,0,0,14227,1778.375
1764838518.085691,0,0,9554,1194.250
1764838518.0896895,0,0,7257,907.125
1764838518.0937078,0,0,9804,1225.500
1764838518.0977051,0,0,12463,1557.875
1764838518.1017,0,0,14101,1762.625
1764838518.1057758,0,0,9527,1190.875
1764838518.1097167,0,0,7099,887.375
1764838518.1136975,0,0,9736,1217.000
1764838518.1176875,0,0,12434,1554.250
1764838518.121702,0,0,14127,1765.875
1764838518.1257064,0,0,9990,1248.750
1764838518.1297038,0,0,7837,979.625
1764838518.1336973,0,0,10202,1275.250
1764838518.1376872,0,0,12501,1562.625
1764838518.1416936,0,0,14046,1755.750
1764838518.1457393,0,0,10151,1268.875
1764838518.1497543,0,0,7908,988.500
1764838518.1537042,0,0,10203,1275.375
1764838518.157686,0,0,12450,1556.250
1764838518.161699,0,0,14024,1753.000
1764838518.1657016,0,0,10085,1260.625
1764838518.1697683,0,0,7064,883.000
1764838518.1737638,0,0,9613,1201.625
1764838518.1777198,0,0,12260,1532.500
1764838518.181747,0,0,14085,1760.625
1764838518.1857014,0,0,10504,1313.000
1764838518.1896982,0,0,7486,935.750
1764838518.1937275,0,0,9788,1223.500
1764838518.1977096,0,0,12231,1528.875
1764838518.2017014,0,0,14015,1751.875
1764838518.2056844,0,0,10586,1323.250
1764838518.2096968,0,0,6884,860.500
1764838518.213717,0,0,9260,1157.500
1764838518.2177517,0,0,12012,1501.500
1764838518.2217069,1,0,14029,1753.625
1764838518.2256868,0,0,10690,1336.250
1764838518.229687,0,0,6663,832.875
1764838518.233764,0,0,9066,1133.250
1764838518.2377255,0,0,11912,1489.000
1764838518.241805,1,1,14018,1752.250
1764838518.2460473,0,0,11056,1382.000
1764838518.249766,0,0,6605,825.625
1764838518.2537117,0,0,8792,1099.000
1764838518.257698,0,0,11708,1463.500
1764838518.261705,0,0,13962,1745.250
1764838518.2656958,0,0,11393,1424.125
1764838518.2696972,0,0,7419,927.375
1764838518.2737327,0,0,9490,1186.250
1764838518.277738,0,0,11933,1491.625
1764838518.2817445,0,0,13893,1736.625
1764838518.2856994,0,0,11610,1451.250
1764838518.2896976,0,0,8435,1054.375
1764838518.2937596,0,0,10281,1285.125
1764838518.2977242,0,0,12168,1521.000
1764838518.3019056,0,0,13812,1726.500
1764838518.305685,0,0,11714,1464.250
1764838518.3096826,0,0,8353,1044.125
1764838518.313689,0,0,10176,1272.000
1764838518.317685,0,0,12095,1511.875
1764838518.3216853,1,1,13790,1723.750
1764838518.3256824,0,0,11525,1440.625
1764838518.329681,0,0,6830,853.750
1764838518.3336878,0,0,8941,1117.625
1764838518.3377225,0,0,11666,1458.250
1764838518.3417132,0,0,13867,1733.375
1764838518.345682,0,0,12156,1519.500
1764838518.3496797,0,0,7832,979.000
1764838518.3536947,0,0,9533,1191.625
1764838518.357728,0,0,11767,1470.875
1764838518.3616934,0,0,13735,1716.875
1764838518.3656843,0,0,12099,1512.375
1764838518.375074,0,0,11392,1424.000
1764838518.3777266,0,0,11392,1424.000
1764838518.381748,0,0,13746,1718.250
1764838518.3856845,0,0,12473,1559.125
1764838518.3896823,0,0,7499,937.375
1764838518.3936942,0,0,9068,1133.500
1764838518.397756,0,0,11505,1438.125
1764838518.4017115,0,1,13669,1708.625
1764838518.405682,0,0,12677,1584.625
1764838518.409685,0,0,8496,1062.000
1764838518.413748,0,0,9906,1238.250
1764838518.417727,0,0,11792,1474.000
1764838518.4217112,1,0,13583,1697.875
1764838518.4256978,0,0,12844,1605.500
1764838518.4296944,0,0,8406,1050.750
1764838518.4337513,0,0,9758,1219.750
1764838518.4377272,0,0,11695,1461.875
1764838518.441702,1,1,13531,1691.375
1764838518.4456842,0,0,12988,1623.500
1764838518.4496822,0,0,9612,1201.500
1764838518.4536998,0,0,11003,1375.375
1764838518.4577017,0,0,12218,1527.250
1764838518.4616978,1,0,13487,1685.875
1764838518.4656825,0,0,12757,1594.625
1764838518.469682,0,0,8334,1041.750
1764838518.4736958,0,0,9975,1246.875
1764838518.477685,0,0,11870,1483.750
1764838518.4817007,1,1,13529,1691.125
1764838518.4857397,0,0,13318,1664.750
1764838518.4896963,0,0,9981,1247.625
1764838518.4936867,0,0,11159,1394.875
1764838518.4976845,0,0,12222,1527.750
1764838518.5016978,1,1,13244,1655.500
1764838518.5056973,0,0,10769,1346.125
1764838518.5096965,0,0,12143,1517.875
1764838518.5137033,0,0,12698,1587.250
1764838518.517697,0,0,13396,1674.500
1764838518.521703,1,1,13239,1654.875
1764838518.525703,0,0,11184,1398.000
1764838518.5297484,0,0,12754,1594.250
1764838518.5336976,0,0,13020,1627.500
1764838518.5376825,0,0,13419,1677.375
1764838518.541698,1,1,13224,1653.000
1764838518.545699,0,0,11627,1453.375
1764838518.549697,0,0,13409,1676.125
1764838518.5536935,0,0,13375,1671.875
1764838518.5576835,0,0,13438,1679.750
1764838518.5616963,1,1,13205,1650.625
1764838518.5656989,0,0,10460,1307.500
1764838518.5696952,0,0,12215,1526.875
1764838518.5737786,0,0,12884,1610.500
1764838518.5777097,0,0,13418,1677.250
1764838518.5816975,1,1,13482,1685.250
1764838518.5857234,0,0,11545,1443.125
1764838518.5896811,0,0,13080,1635.000
1764838518.5937066,0,0,13216,1652.000
1764838518.597704,0,0,13361,1670.125
1764838518.6016967,1,1,13368,1671.000
1764838518.6056821,0,0,11393,1424.125
1764838518.6096792,0,0,13090,1636.250
1764838518.6136985,0,0,13291,1661.375
1764838518.617697,0,0,13396,1674.500
1764838518.6216953,1,1,13400,1675.000
1764838518.6256824,0,0,11045,1380.625
1764838518.629681,0,0,12609,1576.125
1764838518.6336963,0,0,13076,1634.500
1764838518.637694,0,0,13331,1666.375
1764838518.6417017,1,1,13503,1687.875
1764838518.6456978,0,0,12582,1572.750
1764838518.6496952,0,0,14561,1820.125
1764838518.6536973,0,0,14075,1759.375
1764838518.6576939,0,0,13434,1679.250
1764838518.661693,1,1,13302,1662.750
1764838518.6656802,0,0,13276,1659.500
1764838518.669681,0,0,15805,1975.625
1764838518.6736958,0,0,14814,1851.750
1764838518.6776962,0,0,13550,1693.750
1764838518.6817021,1,1,13184,1648.000
1764838518.685735,0,0,13399,1674.875
1764838518.689696,0,0,16318,2039.750
1764838518.693694,0,0,15198,1899.750
1764838518.6976936,0,0,13639,1704.875
1764838518.7017019,1,1,13145,1643.125
1764838518.7056975,0,0,12741,1592.625
1764838518.7096958,0,0,15123,1890.375
1764838518.7136962,0,0,14556,1819.500
1764838518.717695,0,0,13512,1689.000
1764838518.7216978,1,1,13277,1659.625
1764838518.7256954,0,0,13487,1685.875
1764838518.7296937,0,0,16386,2048.250
1764838518.7336972,0,0,15316,1914.500
1764838518.7376945,0,0,13649,1706.125
1764838518.7416964,1,1,13143,1642.875
1764838518.745694,0,0,13344,1668.000
1764838518.749694,0,0,16770,2096.250
1764838518.7536986,0,0,15736,1967.000
1764838518.7576916,0,0,13811,1726.375
1764838518.7616935,1,1,13157,1644.625
1764838518.765696,0,0,13628,1703.500
1764838518.769694,0,0,17264,2158.000
1764838518.7737775,0,0,16071,2008.875
1764838518.777706,0,0,13864,1733.000
1764838518.7816916,1,1,13111,1638.875
1764838518.7856803,0,0,13473,1684.125
1764838518.789717,0,0,17083,2135.375
1764838518.7936964,0,0,16036,2004.500
1764838518.7976954,0,0,13874,1734.250
1764838518.8016896,1,1,13139,1642.375
1764838518.8056777,0,0,13717,1714.625
1764838518.8096776,0,0,17883,2235.375
1764838518.8136988,0,0,16654,2081.750
1764838518.8176947,0,0,14036,1754.500
1764838518.821698,1,1,13053,1631.625
1764838518.8256953,0,0,13434,1679.250
1764838518.8296967,0,0,18093,2261.625
1764838518.833698,0,0,17080,2135.000
1764838518.8376935,0,0,14260,1782.500
1764838518.8416939,1,1,13092,1636.500
1764838518.8457012,0,0,13541,1692.625
1764838518.8497057,0,0,18025,2253.125
1764838518.8536897,0,0,16968,2121.000
1764838518.8576772,0,0,14183,1772.875
1764838518.8616939,1,1,13069,1633.625
1764838518.8656943,0,0,13752,1719.000
1764838518.8696933,0,0,19046,2380.750
1764838518.873688,0,0,17853,2231.625
1764838518.877676,0,0,14475,1809.375
1764838518.8816917,1,1,12996,1624.500
1764838518.885691,0,0,13769,1721.125
1764838518.889728,0,0,19500,2437.500
1764838518.8936968,0,0,18274,2284.250
1764838518.8976917,0,0,14624,1828.000
1764838518.9016898,1,1,12966,1620.750
1764838518.9056892,0,0,13662,1707.750
1764838518.9096942,0,0,19795,2474.375
1764838518.9136977,0,0,18682,2335.250
1764838518.9176898,0,0,14821,1852.625
1764838518.9216852,1,1,12979,1622.375
1764838518.9256744,0,0,13021,1627.625
1764838518.9296777,0,0,18230,2278.750
1764838518.9336963,0,0,17729,2216.125
1764838518.9376922,0,0,14600,1825.000
1764838518.941692,1,1,13119,1639.875
1764838518.945673,0,0,13367,1670.875
1764838518.9496763,0,0,19020,2377.500
1764838518.9536922,0,0,18428,2303.500
1764838518.9576914,0,0,14843,1855.375
1764838518.961695,1,1,13062,1632.750
1764838518.96569,0,0,13246,1655.750
1764838518.9696913,0,0,19123,2390.375
1764838518.9737804,0,0,18655,2331.875
1764838518.9777052,0,0,14978,1872.250
1764838518.981689,1,1,13085,1635.625
1764838518.9856758,0,0,13217,1652.125
1764838518.9897127,0,0,19456,2432.000
1764838518.9936924,0,0,19124,2390.500
1764838518.997694,0,0,15202,1900.250
1764838519.0016873,1,1,13079,1634.875
1764838519.0056727,0,0,13307,1663.375
1764838519.0096755,0,0,20799,2599.875
1764838519.0136976,0,0,20515,2564.375
1764838519.0176926,0,0,15781,1972.625
1764838519.0216951,1,1,13044,1630.500
1764838519.025691,0,0,13015,1626.875
1764838519.0296896,0,0,20202,2525.250
1764838519.0336971,0,0,20204,2525.500
1764838519.0376918,0,0,15736,1967.000
1764838519.0416896,1,1,13097,1637.125
1764838519.0456884,0,0,12853,1606.625
1764838519.0496879,0,0,20068,2508.500
1764838519.0536838,0,0,20429,2553.625
1764838519.0576758,0,0,15937,1992.125
1764838519.061692,1,1,13162,1645.250
1764838519.0656886,0,0,12821,1602.625
1764838519.069687,0,0,19418,2427.250
1764838519.0736916,0,0,19961,2495.125
1764838519.0776873,0,0,15794,1974.250
1764838519.0816894,1,1,13195,1649.375
1764838519.0856843,0,0,12813,1601.625
1764838519.0896852,0,0,19556,2444.500
1764838519.0937016,0,0,20365,2545.625
1764838519.097686,0,0,16038,2004.750
1764838519.101688,1,1,13219,1652.375
1764838519.1056843,0,0,12700,1587.500
1764838519.109684,0,0,18869,2358.625
1764838519.1136866,0,0,19971,2496.375
1764838519.1176896,0,0,15964,1995.500
1764838519.121695,1,1,13279,1659.875
1764838519.1256738,0,0,12727,1590.875
1764838519.1296709,0,0,18740,2342.500
1764838519.1337066,0,0,20105,2513.125
1764838519.137691,0,0,16105,2013.125
1764838519.141688,1,1,13323,1665.375
1764838519.1456716,0,0,12925,1615.625
1764838519.14967,0,0,20936,2617.000
1764838519.1536868,0,0,22595,2824.375
1764838519.1576884,0,0,17244,2155.500
1764838519.1616938,1,1,13308,1663.500
1764838519.165684,0,0,12452,1556.500
1764838519.1696866,0,0,19528,2441.000
1764838519.1737683,0,0,21650,2706.250
1764838519.1777122,0,0,16983,2122.875
1764838519.181704,1,1,13406,1675.750
1764838519.1856706,0,0,12581,1572.625
1764838519.1896687,0,0,18898,2362.250
1764838519.1937253,0,0,21200,2650.000
1764838519.1976933,0,0,16867,2108.375
1764838519.2016854,1,1,13453,1681.625
1764838519.2056735,0,0,12654,1581.750
1764838519.2096694,0,0,19531,2441.375
1764838519.2136884,0,0,22244,2780.500
1764838519.2176878,0,0,17436,2179.500
1764838519.2216926,1,1,13513,1689.125
1764838519.2256875,0,0,12506,1563.250
1764838519.2296848,0,0,19866,2483.250
1764838519.2336879,0,0,23270,2908.750
1764838519.2376964,0,0,18111,2263.875
1764838519.2417707,1,1,13637,1704.625
1764838519.246046,0,0,12408,1551.000
1764838519.2497787,0,0,20620,2577.500
1764838519.2536993,0,0,24453,3056.625
1764838519.2576869,0,0,18796,2349.500
1764838519.2616913,1,1,13717,1714.625
1764838519.265686,0,0,12195,1524.375
1764838519.2696826,0,0,18952,2369.000
1764838519.2736833,0,0,22985,2873.125
1764838519.2776816,0,0,18227,2278.375
1764838519.2816918,1,1,13773,1721.625
1764838519.2856872,0,0,12390,1548.750
1764838519.2896824,0,0,18451,2306.375
1764838519.2936926,0,0,22750,2843.750
1764838519.2977254,0,0,18245,2280.625
1764838519.3018343,1,1,13857,1732.125
1764838519.3056767,0,0,12396,1549.500
1764838519.3096683,0,0,17620,2202.500
1764838519.3136733,0,0,21944,2743.000
1764838519.3176677,0,0,17918,2239.750
1764838519.3216717,1,1,13832,1729.000
1764838519.3256724,0,0,12460,1557.500
1764838519.3296702,0,0,17245,2155.625
1764838519.3336701,0,0,21997,2749.625
1764838519.3376667,0,0,18137,2267.125
1764838519.3416827,1,1,13966,1745.750
1764838519.3456883,0,0,12520,1565.000
1764838519.3496852,0,0,17480,2185.000
1764838519.3536868,0,0,22311,2788.875
1764838519.3576834,0,0,18346,2293.250
1764838519.361691,1,1,13991,1748.875
1764838519.3656836,0,0,12439,1554.875
1764838519.369685,0,0,17745,2218.125
1764838519.3791342,0,0,14188,1773.500
1764838519.3817039,1,1,14188,1773.500
1764838519.3856907,0,0,12326,1540.750
1764838519.38969,0,0,18103,2262.875
1764838519.3936777,0,0,24875,3109.375
1764838519.397707,0,0,20256,2532.000
1764838519.401684,1,1,14500,1812.500
1764838519.4056904,0,0,12171,1521.375
1764838519.4096868,0,0,16753,2094.125
1764838519.4136782,0,0,23072,2884.000
1764838519.4176686,0,0,19339,2417.375
1764838519.4216886,1,1,14398,1799.750
1764838519.425689,0,0,12392,1549.000
1764838519.4296882,0,0,17579,2197.375
1764838519.4336817,0,0,25061,3132.625
1764838519.437669,0,0,20738,2592.250
1764838519.441687,1,1,14757,1844.625
1764838519.4456875,0,0,12195,1524.375
1764838519.4496865,0,0,17006,2125.750
1764838519.4536936,0,0,20797,2599.625
1764838519.4576845,0,0,14854,1856.750
1764838519.4616854,1,1,12239,1529.875
1764838519.4656832,0,0,16537,2067.125
1764838519.4696875,0,0,24566,3070.750
1764838519.4736917,0,0,20837,2604.625
1764838519.477684,0,0,14949,1868.625
1764838519.4816885,1,1,12297,1537.125
1764838519.4856858,0,0,16292,2036.500
1764838519.4896858,0,0,24663,3082.875
1764838519.4936926,0,0,21103,2637.875
1764838519.4976838,0,0,15094,1886.750
1764838519.5017002,1,1,12318,1539.750
1764838519.5056877,0,0,16097,2012.125
1764838519.5096865,0,0,24695,3086.875
1764838519.51369,0,0,21280,2660.000
1764838519.517693,0,0,15207,1900.875
1764838519.5216885,1,1,12340,1542.500
1764838519.5257027,0,0,15887,1985.875
1764838519.529704,0,0,24949,3118.625
1764838519.5336878,0,0,21707,2713.375
1764838519.5376706,0,0,15433,1929.125
1764838519.5416842,1,1,12366,1545.750
1764838519.5456846,0,0,15843,1980.375
1764838519.5496862,0,0,25181,3147.625
1764838519.5536778,0,0,22115,2764.375
1764838519.5576663,0,0,15696,1962.000
1764838519.5616815,1,1,12424,1553.000
1764838519.565682,0,0,15528,1941.000
1764838519.5696838,0,0,25202,3150.250
1764838519.57369,0,0,22421,2802.625
1764838519.5777617,0,0,15940,1992.500
1764838519.5816965,1,1,12495,1561.875
1764838519.5856693,0,0,14981,1872.625
1764838519.5896707,0,0,24924,3115.500
1764838519.5936885,0,0,22484,2810.500
1764838519.597685,0,0,16031,2003.875
1764838519.6016793,1,1,12538,1567.250
1764838519.6056674,0,0,14545,1818.125
1764838519.6096702,0,0,24394,3049.250
1764838519.613688,0,0,22312,2789.000
1764838519.6176853,0,0,16007,2000.875
1764838519.6216862,1,1,12566,1570.750
1764838519.6256816,0,0,14487,1810.875
1764838519.6296854,0,0,24709,3088.625
1764838519.6336899,0,0,22818,2852.250
1764838519.637685,0,0,16339,2042.375
1764838519.6416872,1,1,12635,1579.375
1764838519.6456811,0,0,14204,1775.500
1764838519.6496913,0,0,24721,3090.125
1764838519.6536875,0,0,23189,2898.625
1764838519.6576693,0,0,16684,2085.500
1764838519.6616848,1,1,12759,1594.875
1764838519.6656811,0,0,14023,1752.875
1764838519.6696804,0,0,24638,3079.750
1764838519.673675,0,0,23312,2914.000
1764838519.677671,0,0,16809,2101.125
1764838519.6816833,1,1,12798,1599.750
1764838519.6856835,0,0,13703,1712.875
1764838519.6896803,0,0,23939,2992.375
1764838519.6936922,0,0,22917,2864.625
1764838519.6976817,0,0,16580,2072.500
1764838519.7017262,1,1,12764,1595.500
1764838519.7056801,0,0,13556,1694.500
1764838519.7096817,0,0,24152,3019.000
1764838519.7136834,0,0,23461,2932.625
1764838519.717693,0,0,17016,2127.000
1764838519.7216885,1,1,12888,1611.000
1764838519.7256808,0,0,13389,1673.625
1764838519.7296803,0,0,24181,3022.625
1764838519.7336886,0,0,23804,2975.500
1764838519.7376816,0,0,17380,2172.500
1764838519.7416897,1,1,13024,1628.000
1764838519.7456791,0,0,13097,1637.125
1764838519.7496798,0,0,23659,2957.375
1764838519.7536829,0,0,23708,2963.500
1764838519.7576838,0,0,17329,2166.125
1764838519.761687,1,1,13005,1625.625
1764838519.765677,0,0,13095,1636.875
1764838519.7696784,0,0,24009,3001.125
1764838519.773682,0,0,24256,3032.000
1764838519.7777545,0,0,17977,2247.125
1764838519.7816975,1,1,13283,1660.375
1764838519.785664,0,0,13010,1626.250
1764838519.7896612,0,0,23942,2992.750
1764838519.793683,0,0,24430,3053.750
1764838519.7976832,0,0,18245,2280.625
1764838519.8017178,1,1,13410,1676.250
1764838519.8056624,0,0,12882,1610.250
1764838519.8096645,0,0,23845,2980.625
1764838519.8136837,0,0,24686,3085.750
1764838519.8176844,0,0,18681,2335.125
1764838519.8216875,1,1,13624,1703.000
1764838519.8256814,0,0,12734,1591.750
1764838519.829678,0,0,23176,2897.000
1764838519.833683,0,0,24526,3065.750
1764838519.8376803,0,0,18429,2303.625
1764838519.8416886,1,1,13484,1685.500
1764838519.8456829,0,0,12533,1566.625
1764838519.84968,0,0,22588,2823.500
1764838519.8536859,0,0,24420,3052.500
1764838519.8576818,0,0,18319,2289.875
1764838519.8616884,1,1,13425,1678.125
1764838519.8656816,0,0,12533,1566.625
1764838519.8696773,0,0,22649,2831.125
1764838519.8736827,0,0,24771,3096.375
1764838519.87768,0,0,18890,2361.250
1764838519.8816855,1,1,13707,1713.375
1764838519.8856807,0,0,12505,1563.125
1764838519.8896785,0,0,22675,2834.375
1764838519.8936865,0,0,25011,3126.375
1764838519.8976789,0,0,19377,2422.125
1764838519.901718,1,1,13969,1746.125
1764838519.905682,0,0,12459,1557.375
1764838519.9096792,0,0,22020,2752.500
1764838519.9136832,0,0,24888,3111.000
1764838519.9176784,0,0,19150,2393.750
1764838519.921685,1,1,13821,1727.625
1764838519.9256797,0,0,12433,1554.125
1764838519.9296875,0,0,22252,2781.500
1764838519.9336798,0,0,25208,3151.000
1764838519.9376624,0,0,19874,2484.250
1764838519.941666,1,1,14241,1780.125
1764838519.945664,0,0,12409,1551.125
1764838519.9496636,0,0,21650,2706.250
1764838519.953662,0,0,25137,3142.125
1764838519.9576619,0,0,19719,2464.875
1764838519.961667,1,1,14122,1765.250
1764838519.965665,0,0,12299,1537.375
1764838519.9696631,0,0,21343,2667.875
1764838519.9736874,0,0,25287,3160.875
1764838519.9777532,0,0,20140,2517.500
1764838519.9816978,1,1,14409,1801.125
1764838519.9856663,0,0,12293,1536.625
1764838519.989675,0,0,20353,2544.125
1764838519.993679,0,0,25188,3148.500
1764838519.9976783,0,0,19935,2491.875
1764838520.001676,1,1,14229,1778.625
1764838520.0057137,0,0,12238,1529.750
1764838520.0096638,0,0,21179,2647.375
1764838520.0136878,0,0,25578,3197.250
1764838520.0176773,0,0,21233,2654.125
1764838520.021681,1,1,15116,1889.500
1764838520.0256784,0,0,12439,1554.875
1764838520.0296876,0,0,20708,2588.500
1764838520.0336788,0,0,25604,3200.500
1764838520.037676,0,0,21392,2674.000
1764838520.0416799,1,1,15227,1903.375
1764838520.0456886,0,0,12437,1554.625
1764838520.0497026,0,0,20100,2512.500
1764838520.053694,0,0,25490,3186.250
1764838520.0576603,0,0,20917,2614.625
1764838520.0616715,1,1,14845,1855.625
1764838520.0656765,0,0,12270,1533.750
1764838520.0696878,0,0,19677,2459.625
1764838520.0736706,0,0,25515,3189.375
1764838520.0776584,0,0,21044,2630.500
1764838520.0816727,1,1,14919,1864.875
1764838520.0856764,0,0,12260,1532.500
1764838520.089677,0,0,19535,2441.875
1764838520.0936713,0,0,25647,3205.875
1764838520.097658,0,0,21717,2714.625
1764838520.1016774,1,1,15430,1928.750
1764838520.1056905,0,0,12391,1548.875
1764838520.1096761,0,0,19225,2403.125
1764838520.1136794,0,0,25658,3207.250
1764838520.1176722,0,0,21821,2727.625
1764838520.121678,1,1,15492,1936.500
1764838520.1256742,0,0,12388,1548.500
1764838520.1296735,0,0,18198,2274.750
1764838520.133676,0,0,25546,3193.250
1764838520.1376712,0,0,21445,2680.625
1764838520.1416774,1,1,15187,1898.375
1764838520.145672,0,0,12272,1534.000
1764838520.1496744,0,0,18721,2340.125
1764838520.1536806,0,0,25746,3218.250
1764838520.1576717,0,0,22660,2832.500
1764838520.1616755,1,1,16206,2025.750
1764838520.1656706,0,0,12612,1576.500
1764838520.1696758,0,0,17823,2227.875
1764838520.1736693,0,0,25679,3209.875
1764838520.1777642,0,0,22208,2776.000
1764838520.1817,1,1,15777,1972.125
1764838520.185663,0,0,12436,1554.500
1764838520.1896598,0,0,18006,2250.750
1764838520.1936755,0,0,25766,3220.750
1764838520.1976755,0,0,23066,2883.250
1764838520.2016714,1,1,16584,2073.000
1764838520.205695,0,0,12736,1592.000
1764838520.2096608,0,0,17351,2168.875
1764838520.2136793,0,0,25733,3216.625
1764838520.2176776,0,0,22836,2854.500
1764838520.2216747,1,1,16328,2041.000
1764838520.2256732,0,0,12627,1578.375
1764838520.2296748,0,0,16675,2084.375
1764838520.2336807,0,0,25640,3205.000
1764838520.2376754,0,0,22706,2838.250
1764838520.2417598,1,1,16197,2024.625
1764838520.2460518,0,0,12561,1570.125
1764838520.2497418,0,0,17430,2178.750
1764838520.2536829,0,0,25809,3226.125
1764838520.2576737,0,0,24137,3017.125
1764838520.261677,1,1,17831,2228.875
1764838520.2656703,0,0,13289,1661.125
1764838520.2696698,0,0,16448,2056.000
1764838520.2736745,0,0,25718,3214.750
1764838520.277671,0,0,23464,2933.000
1764838520.2816775,1,1,16958,2119.750
1764838520.2856734,0,0,12870,1608.750
1764838520.2896717,0,0,15760,1970.000
1764838520.2936797,0,0,25529,3191.125
1764838520.297675,0,0,23168,2896.000
1764838520.3016722,1,1,16634,2079.250
1764838520.3056574,0,0,12720,1590.000
1764838520.309699,0,0,15589,1948.625
1764838520.3136768,0,0,25558,3194.750
1764838520.3176756,0,0,23466,2933.250
1764838520.3216796,1,1,16952,2119.000
1764838520.3256688,0,0,12848,1606.000
1764838520.329671,0,0,15146,1893.250
1764838520.3336778,0,0,25527,3190.875
1764838520.3376737,0,0,23894,2986.750
1764838520.3416789,1,1,17471,2183.875
1764838520.3456707,0,0,13075,1634.375
1764838520.349676,0,0,15290,1911.250
1764838520.3536837,0,0,25649,3206.125
1764838520.3576734,0,0,24422,3052.750
1764838520.3616724,1,1,18240,2280.000
1764838520.3656569,0,0,13454,1681.750
1764838520.3696568,0,0,14809,1851.125
1764838520.373674,0,0,24209,3026.125
1764838520.3831017,1,1,13267,1658.375
1764838520.385691,0,0,14674,1834.250
1764838520.389673,0,0,25512,3189.000
1764838520.3936632,0,0,24604,3075.500
1764838520.397658,0,0,18536,2317.000
1764838520.401673,1,1,13594,1699.250
1764838520.4056735,0,0,14122,1765.250
1764838520.4097118,0,0,24998,3124.750
1764838520.4136682,0,0,24167,3020.875
1764838520.4176574,0,0,17839,2229.875
1764838520.4216695,1,1,13213,1651.625
1764838520.4256735,0,0,13863,1732.875
1764838520.429669,0,0,24875,3109.375
1764838520.4336698,0,0,24217,3027.125
1764838520.4376721,0,0,17918,2239.750
1764838520.4416785,1,1,13250,1656.250
1764838520.4456737,0,0,13633,1704.125
1764838520.44968,0,0,24790,3098.750
1764838520.453669,0,0,24468,3058.500
1764838520.4576561,0,0,18297,2287.125
1764838520.4616723,1,1,13417,1677.125
1764838520.465672,0,0,13540,1692.500
1764838520.469671,0,0,24870,3108.750
1764838520.4736583,0,0,24880,3110.000
1764838520.4776516,0,0,19060,2382.500
1764838520.4816706,1,1,13838,1729.750
1764838520.4856732,0,0,13430,1678.750
1764838520.4896693,0,0,24607,3075.875
1764838520.493664,0,0,24815,3101.875
1764838520.497656,0,0,18932,2366.500
1764838520.5016732,1,1,13754,1719.250
1764838520.505672,0,0,13130,1641.250
1764838520.5096796,0,0,24372,3046.500
1764838520.5136695,0,0,25027,3128.375
1764838520.51767,0,0,19390,2423.750
1764838520.5216758,1,1,14011,1751.375
1764838520.525669,0,0,13092,1636.500
1764838520.5296688,0,0,24326,3040.750
1764838520.5336723,0,0,25215,3151.875
1764838520.5376692,0,0,19864,2483.000
1764838520.5416763,1,1,14298,1787.250
1764838520.5456688,0,0,13003,1625.375
1764838520.5496693,0,0,23811,2976.375
1764838520.5536575,0,0,25075,3134.375
1764838520.5576503,0,0,19508,2438.500
1764838520.5616655,1,1,14049,1756.125
1764838520.5656698,0,0,12836,1604.500
1764838520.5696704,0,0,23812,2976.500
1764838520.5736623,0,0,25340,3167.500
1764838520.5776505,0,0,20245,2530.625
1764838520.5817478,1,1,14521,1815.125
1764838520.5856864,0,0,12836,1604.500
1764838520.5896702,0,0,23488,2936.000
1764838520.5936568,0,0,25368,3171.000
1764838520.5976527,0,0,20344,2543.000
1764838520.601667,0,1,14566,1820.750
1764838520.6056693,0,0,12777,1597.125
1764838520.609668,0,0,23305,2913.125
1764838520.6137037,0,0,25459,3182.375
1764838520.6176536,0,0,20666,2583.250
1764838520.6216698,0,1,14774,1846.750
1764838520.6256745,0,0,12708,1588.500
1764838520.6296713,0,0,22861,2857.625
1764838520.6336699,0,0,25485,3185.625
1764838520.6376674,0,0,20781,2597.625
1764838520.6416714,0,0,14840,1855.000
1764838520.64567,0,0,12570,1571.250
1764838520.649676,0,0,22059,2757.375
1764838520.6536818,0,0,25352,3169.000
1764838520.6576662,0,0,20326,2540.750
1764838520.6616652,0,0,14504,1813.000
1764838520.6656559,0,0,12483,1560.375
1764838520.6696527,0,0,22358,2794.750
1764838520.6736698,0,0,25638,3204.750
1764838520.6776712,0,0,21519,2689.875
1764838520.6816678,0,0,15395,1924.375
1764838520.6856518,0,0,12647,1580.875
1764838520.6896544,0,0,21223,2652.875
1764838520.6936712,0,0,25378,3172.250
1764838520.6976676,0,0,20427,2553.375
1764838520.7016706,0,0,14524,1815.500
1764838520.7056658,0,0,12348,1543.500
1764838520.7096674,0,0,21986,2748.250
1764838520.713707,0,0,25731,3216.375
1764838520.7176669,0,0,22258,2782.250
1764838520.7216713,0,0,15947,1993.375
1764838520.7256658,0,0,12746,1593.250
1764838520.7296674,0,0,21045,2630.625
1764838520.7336729,0,0,25595,3199.375
1764838520.7376692,0,0,21337,2667.125
1764838520.74167,0,0,15172,1896.500
1764838520.745663,0,0,12417,1552.125
1764838520.7496674,0,0,20609,2576.125
1764838520.753669,0,0,25637,3204.625
1764838520.757666,0,0,21595,2699.375
1764838520.7616675,0,0,15357,1919.625
1764838520.7656646,0,0,12444,1555.500
1764838520.7696693,0,0,20474,2559.250
1764838520.7736697,0,0,25697,3212.125
1764838520.7776666,0,0,22026,2753.250
1764838520.7817435,0,0,15698,1962.250
1764838520.7856812,0,0,12515,1564.375
1764838520.789668,0,0,19504,2438.000
1764838520.7936556,0,0,25630,3203.750
1764838520.7976525,0,0,21630,2703.750
1764838520.801656,0,0,15349,1918.625
1764838520.8056486,0,0,12360,1545.000
1764838520.8096483,0,0,19972,2496.500
1764838520.8136907,0,0,25775,3221.875
1764838520.8176537,0,0,22994,2874.250
1764838520.8216653,0,0,16568,2071.000
1764838520.825668,0,0,12801,1600.125
1764838520.8296666,0,0,19451,2431.375
1764838520.8336685,0,0,25710,3213.750
1764838520.8376672,0,0,22205,2775.625
1764838520.841673,0,0,15800,1975.000
1764838520.8456647,0,0,12466,1558.250
1764838520.8496652,0,0,18678,2334.750
1764838520.8536737,0,0,25725,3215.625
1764838520.857668,0,0,22417,2802.125
1764838520.8616726,0,0,15984,1998.000
1764838520.8656645,0,0,12520,1565.000
1764838520.8696644,0,0,18553,2319.125
1764838520.8736742,0,0,25766,3220.750
1764838520.8776696,0,0,22970,2871.250
1764838520.881667,0,0,16495,2061.875
1764838520.8856478,0,0,12703,1587.875
1764838520.8896477,0,0,17961,2245.125
1764838520.8936696,0,0,25736,3217.000
1764838520.8976693,0,0,22671,2833.875
1764838520.9016638,0,0,16185,2023.125
1764838520.905649,0,0,12568,1571.000
1764838520.9096484,0,0,17344,2168.000
1764838520.9136662,0,0,25708,3213.500
1764838520.9176815,0,0,22627,2828.375
1764838520.9216683,0,0,16133,2016.625
1764838520.925663,0,1,12545,1568.125
1764838520.929663,0,0,17147,2143.375
1764838520.9336677,0,0,25752,3219.000
1764838520.9376643,0,0,23155,2894.375
1764838520.9416683,0,0,16642,2080.250
1764838520.945666,1,1,12741,1592.625
1764838520.9496617,0,0,16996,2124.500
1764838520.9536612,0,0,25775,3221.875
1764838520.957664,0,0,23586,2948.250
1764838520.9616642,0,0,17121,2140.125
1764838520.9656487,0,0,12934,1616.750
1764838520.9696457,0,0,16782,2097.750
1764838520.9736648,0,0,25778,3222.250
1764838520.9776628,0,0,23777,2972.125
1764838520.9817395,0,0,17346,2168.250
1764838520.9856653,0,0,13038,1629.750
1764838520.9896474,0,0,16616,2077.000
1764838520.9936466,0,0,25794,3224.250
1764838520.9976504,0,0,24163,3020.375
1764838521.0016642,0,0,17868,2233.500
1764838521.0056653,0,0,13282,1660.250
1764838521.009661,0,0,15728,1966.000
1764838521.01366,0,0,25532,3191.500
1764838521.017685,0,0,23305,2913.125
1764838521.0216653,0,0,16783,2097.875
1764838521.025669,0,0,12771,1596.375
1764838521.0296638,0,0,15479,1934.875
1764838521.033661,0,0,25580,3197.500
1764838521.0376625,0,0,23736,2967.000
1764838521.0416684,0,0,17284,2160.500
1764838521.045663,1,0,12987,1623.375
1764838521.049663,0,0,15298,1912.250
1764838521.0536559,0,0,25653,3206.625
1764838521.057647,0,0,24308,3038.500
1764838521.061662,0,0,18063,2257.875
1764838521.0656624,0,0,13357,1669.625
1764838521.0696685,0,0,15085,1885.625
1764838521.0736732,0,0,25619,3202.375
1764838521.0776615,0,0,24506,3063.250
1764838521.0816605,0,0,18383,2297.875
1764838521.0856485,1,1,13521,1690.125
1764838521.089649,0,0,14743,1842.875
1764838521.0936608,0,0,25431,3178.875
1764838521.09766,0,0,24333,3041.625
1764838521.1016624,0,0,18092,2261.500
1764838521.1056473,0,0,13353,1669.125
1764838521.1096463,0,0,14256,1782.000
1764838521.113663,0,0,25303,3162.875
1764838521.1176605,0,0,24565,3070.625
1764838521.1216645,0,0,18471,2308.875
1764838521.1256607,0,0,13548,1693.500
1764838521.1296625,0,0,14191,1773.875
1764838521.1336582,0,0,25311,3163.875
1764838521.137643,0,0,24808,3101.000
1764838521.1416643,0,0,18924,2365.500
1764838521.1456761,0,0,13797,1724.625
1764838521.1496625,0,0,13955,1744.375
1764838521.153662,0,0,25202,3150.250
1764838521.1576586,0,0,24916,3114.500
1764838521.1616673,0,0,19149,2393.625
1764838521.1656604,1,1,13907,1738.375
1764838521.1696606,0,0,13658,1707.250
1764838521.173664,0,0,24799,3099.875
1764838521.1776607,0,0,24681,3085.125
1764838521.181746,0,0,18679,2334.875
1764838521.185676,1,1,13630,1703.750
1764838521.189663,0,0,13554,1694.250
1764838521.1936533,0,0,24997,3124.625
1764838521.1976445,0,0,25178,3147.250
1764838521.2016592,0,0,19777,2472.125
1764838521.205662,0,0,14276,1784.500
1764838521.2096636,0,0,13323,1665.375
1764838521.2136548,0,0,24469,3058.625
1764838521.2176435,0,0,25033,3129.125
1764838521.221698,0,0,19409,2426.125
1764838521.2256615,0,0,14035,1754.375
1764838521.2296643,0,0,13131,1641.375
1764838521.233666,0,0,24419,3052.375
1764838521.237659,0,0,25258,3157.250
1764838521.2417374,0,0,19994,2499.250
1764838521.2460136,0,0,13307,1663.375
1764838521.2497303,0,0,24757,3094.625
1764838521.253672,0,0,25578,3197.250
1764838521.2576625,0,0,21182,2647.750
1764838521.2616632,0,0,15224,1903.000
1764838521.2656589,0,1,13218,1652.250
1764838521.2696593,0,0,24040,3005.000
1764838521.2736757,0,0,25370,3171.250
1764838521.2776647,0,0,20342,2542.750
1764838521.2816646,0,0,14588,1823.500
1764838521.2856581,0,0,12895,1611.875
1764838521.289658,0,0,23499,2937.375
1764838521.2936645,0,0,25242,3155.250
1764838521.2976625,0,0,19963,2495.375
1764838521.3016567,0,0,14319,1789.875
1764838521.3056421,0,0,12695,1586.875
1764838521.3096445,0,0,23249,2906.125
1764838521.313666,0,0,25436,3179.500
1764838521.31766,0,0,20591,2573.875
1764838521.321705,0,0,14739,1842.375
1764838521.3256578,1,0,12733,1591.625
1764838521.3296597,0,0,23207,2900.875
1764838521.3336668,0,0,25541,3192.625
1764838521.3376584,0,0,21007,2625.875
1764838521.341661,0,0,15016,1877.000
1764838521.34566,0,0,12732,1591.500
1764838521.3496556,0,0,22629,2828.625
1764838521.3536625,0,0,25455,3181.875
1764838521.3576577,0,0,20674,2584.250
1764838521.361662,0,0,14756,1844.500
1764838521.3656552,0,0,12543,1567.875
1764838521.3696544,0,0,22193,2774.125
1764838521.37365,0,0,25511,3188.875
1764838521.3776464,0,0,20897,2612.125
1764838522.6308277,0,0,13822,1727.750
1764838522.633731,0,0,25029,3128.625
1764838522.6377058,0,0,25426,3178.250
1764838522.6416996,0,0,20570,2571.250
1764838522.6456852,1,1,14776,1847.000
1764838522.649684,0,0,13399,1674.875
1764838522.6537058,0,0,24637,3079.625
1764838522.657697,0,0,25414,3176.750
1764838522.6617362,0,0,20509,2563.625
1764838522.665698,1,1,14724,1840.500
1764838522.6697,0,0,13236,1654.500
1764838522.6737049,0,0,24299,3037.375
1764838522.6776993,0,1,25358,3169.750
1764838522.681706,0,0,20311,2538.875
1764838522.6856992,1,1,14566,1820.750
1764838522.6897006,0,0,13127,1640.875
1764838522.6937013,0,0,24283,3035.375
1764838522.6977026,0,0,25513,3189.125
1764838522.7017064,0,0,20894,2611.750
1764838522.7056966,1,1,14968,1871.000
1764838522.7097,0,0,13085,1635.625
1764838522.7137058,0,0,23866,2983.250
1764838522.7177026,0,0,25485,3185.625
1764838522.7217064,0,0,20770,2596.250
1764838522.7256954,1,1,14858,1857.250
1764838522.7296996,0,0,12942,1617.750
1764838522.7337034,0,0,23857,2982.125
1764838522.7377017,0,0,25665,3208.125
1764838522.7417023,0,0,21680,2710.000
1764838522.7456977,1,1,15565,1945.625
1764838522.7497,0,0,12953,1619.125
1764838522.7537043,0,0,22381,2797.625
1764838522.7576969,0,0,25065,3133.125
1764838522.76179,0,0,19534,2441.750
1764838522.7656574,1,1,13991,1748.875
1764838522.7696564,0,0,12502,1562.750
1764838522.7736573,0,0,23259,2907.375
1764838522.777655,0,0,25716,3214.500
1764838522.7816596,0,0,22091,2761.375
1764838522.7856534,1,1,15851,1981.375
1764838522.7896526,0,0,12969,1621.125
1764838522.793659,0,0,22819,2852.375
1764838522.797656,0,0,25677,3209.625
1764838522.801653,0,0,21785,2723.125
1764838522.805635,1,1,15579,1947.375
1764838522.8096354,0,0,12784,1598.000
1764838522.8136578,0,0,22218,2777.250
1764838522.817656,0,0,25628,3203.500
1764838522.821648,0,0,21485,2685.625
1764838522.8256376,1,1,15312,1914.000
1764838522.829719,0,0,12631,1578.875
1764838522.8336573,0,0,22534,2816.750
1764838522.8376422,0,0,25786,3223.250
1764838522.841658,0,0,23064,2883.000
1764838522.8456535,1,1,16729,2091.125
1764838522.8496528,0,0,13102,1637.750
1764838522.8536444,0,0,22094,2761.750
1764838522.8576393,0,0,25775,3221.875
1764838522.8616576,0,0,22865,2858.125
1764838522.865694,1,1,16505,2063.125
1764838522.8696556,0,0,12975,1621.875
1764838522.8736572,0,0,21788,2723.500
1764838522.8776548,0,0,25790,3223.750
1764838522.8816607,0,0,23142,2892.750
1764838522.885654,1,1,16767,2095.875
1764838522.8896527,0,0,13004,1625.500
1764838522.8936543,0,0,21210,2651.250
1764838522.8976545,0,0,25774,3221.750
1764838522.9016597,0,0,22865,2858.125
1764838522.905654,1,1,16463,2057.875
1764838522.909652,0,0,12829,1603.625
1764838522.9136543,0,0,20669,2583.625
1764838522.917656,0,0,25769,3221.125
1764838522.9216597,0,0,22797,2849.625
1764838522.9256532,1,1,12761,1595.125
1764838522.9296522,0,0,20413,2551.625
1764838522.933644,0,0,25775,3221.875
1764838522.9376397,0,0,22938,2867.250
1764838522.9416602,0,0,16502,2062.750
1764838522.9456582,1,1,12770,1596.250
1764838522.9496522,0,0,20328,2541.000
1764838522.9536462,0,0,25814,3226.750
1764838522.9576366,0,0,23871,2983.875
1764838522.9616516,0,0,17566,2195.750
1764838522.9656708,1,1,13225,1653.125
1764838522.969652,0,0,19911,2488.875
1764838522.973665,0,0,25813,3226.625
1764838522.977654,0,0,23848,2981.000
1764838522.9816535,0,0,17506,2188.250
1764838522.98565,1,1,13171,1646.375
1764838522.989649,0,0,19710,2463.750
1764838522.9936516,0,0,25827,3228.375
1764838522.9976513,0,0,24308,3038.500
1764838523.0016494,0,0,18163,2270.375
1764838523.0056372,1,1,13483,1685.375
1764838523.0096374,0,0,19151,2393.875
1764838523.0136561,0,0,25821,3227.625
1764838523.0176504,0,0,24157,3019.625
1764838523.0216541,0,0,17916,2239.500
1764838523.0256388,1,1,13341,1667.625
1764838523.0297158,0,0,18463,2307.875
1764838523.0336475,0,0,25822,3227.750
1764838523.0376384,0,0,24299,3037.375
1764838523.0416512,0,0,18116,2264.500
1764838523.0456522,1,1,13429,1678.625
1764838523.0496528,0,0,18525,2315.625
1764838523.0536437,0,0,25829,3228.625
1764838523.0576355,0,0,24576,3072.000
1764838523.0616505,0,0,18572,2321.500
1764838523.0656877,1,1,13665,1708.125
1764838523.0696511,0,0,17820,2227.500
1764838523.0736558,0,0,25810,3226.250
1764838523.0776494,0,0,24067,3008.375
1764838523.0816553,0,0,17741,2217.625
1764838523.085649,1,1,13219,1652.375
1764838523.089649,0,0,17437,2179.625
1764838523.0936546,0,0,25815,3226.875
1764838523.097646,0,0,24305,3038.125
1764838523.1016548,0,0,18082,2260.250
1764838523.105675,1,1,13391,1673.875
1764838523.1096525,0,0,17349,2168.625
1764838523.1136446,0,0,25828,3228.500
1764838523.1176367,0,0,24720,3090.000
1764838523.1216495,0,0,18795,2349.375
1764838523.1256514,1,1,13769,1721.125
1764838523.1296499,0,0,16787,2098.375
1764838523.1336436,0,0,25828,3228.500
1764838523.137634,0,0,24883,3110.375
1764838523.1416445,0,0,19142,2392.750
1764838523.1456466,1,1,13961,1745.125
1764838523.1496487,0,0,16499,2062.375
1764838523.1536517,0,0,25823,3227.875
1764838523.157643,0,0,24884,3110.500
1764838523.16165,0,0,19127,2390.875
1764838523.1656458,1,1,13944,1743.000
1764838523.1696634,0,0,16064,2008.000
1764838523.1736479,0,0,25811,3226.375
1764838523.177648,0,0,24907,3113.375
1764838523.1816564,0,0,19169,2396.125
1764838523.1856453,1,1,13966,1745.750
1764838523.189647,0,0,15879,1984.875
1764838523.1936512,0,0,25822,3227.750
1764838523.197647,0,0,25210,3151.250
1764838523.2016501,0,0,19906,2488.250
1764838523.2056448,1,1,14409,1801.125
1764838523.2096477,0,0,15649,1956.125
1764838523.2136507,0,0,25802,3225.250
1764838523.2176466,0,0,25249,3156.125
1764838523.2216482,0,0,20020,2502.500
1764838523.2256439,1,1,14477,1809.625
1764838523.2297237,0,0,15018,1877.250
1764838523.23366,0,0,25691,3211.375
1764838523.2376344,0,0,25196,3149.500
1764838523.2417204,0,0,19853,2481.625
1764838523.2460024,1,1,14343,1792.875
1764838523.2497141,0,0,15298,1912.250
1764838523.2536588,0,0,25799,3224.875
1764838523.2576468,0,0,25540,3192.500
1764838523.261658,0,0,21058,2632.250
1764838523.2656472,1,1,15180,1897.500
1764838523.269689,0,0,14566,1820.750
1764838523.2736526,0,0,25436,3179.500
1764838523.2776468,0,0,25146,3143.250
1764838523.281655,0,0,19715,2464.375
1764838523.2856455,1,1,14238,1779.750
1764838523.2896445,0,0,13965,1745.625
1764838523.2936544,0,0,25239,3154.875
1764838523.2976565,0,0,25159,3144.875
1764838523.3018084,0,0,19743,2467.875
1764838523.3056357,1,1,14251,1781.375
1764838523.3097532,0,0,13992,1749.000
1764838523.3144007,0,0,25361,3170.125
1764838523.3176594,0,0,25446,3180.750
1764838523.3216407,0,0,20645,2580.625
1764838523.325633,1,1,14832,1854.000
1764838523.3296306,0,0,13926,1740.750
1764838523.333633,0,0,25230,3153.750
1764838523.337632,0,0,25525,3190.625
1764838523.3416522,0,0,20966,2620.750
1764838523.3456511,1,1,15056,1882.000
1764838523.3496487,0,0,13755,1719.375
1764838523.3536518,0,0,25008,3126.000
1764838523.357647,0,0,25538,3192.250
1764838523.3616538,0,0,21016,2627.000
1764838523.3656495,1,1,15081,1885.125
1764838523.3696458,0,0,13541,1692.625
1764838523.3736393,0,0,24648,3081.000
1764838523.3776345,0,0,25416,3177.000
1764838523.3816502,0,0,20520,2565.000
1764838523.3856502,1,1,14701,1837.625
1764838523.3896482,0,0,13335,1666.875
1764838523.3936498,0,0,24666,3083.250
1764838523.3976498,0,0,25615,3201.875
1764838523.401656,0,0,21403,2675.375
1764838523.4056473,1,1,15352,1919.000
1764838523.4096477,0,0,13199,1649.875
1764838523.4136488,0,0,24030,3003.750
1764838523.4176455,0,0,25563,3195.375
1764838523.4216528,0,0,21108,2638.500
1764838523.4256485,1,1,15122,1890.250
1764838523.4297345,0,0,12988,1623.500
1764838523.4336584,0,0,23587,2948.375
1764838523.4376326,0,0,25421,3177.625
1764838523.4416485,0,0,20523,2565.375
1764838523.4456499,1,1,14647,1830.875
1764838523.4496477,0,0,12869,1608.625
1764838523.4536378,0,0,23871,2983.875
1764838523.4576316,0,0,25691,3211.375
1764838523.4616497,0,0,21886,2735.750
1764838523.4656498,1,1,15694,1961.750
1764838523.4696465,0,0,13085,1635.625
1764838523.4736884,0,0,23537,2942.125
1764838523.4776456,0,0,25689,3211.125
1764838523.481652,0,0,21869,2733.625
1764838523.4856465,1,1,15667,1958.375
1764838523.4896472,0,0,13005,1625.625
1764838523.4936492,0,0,23384,2923.000
1764838523.4976447,0,0,25743,3217.875
1764838523.5016494,0,0,22376,2797.000
1764838523.5056484,1,1,16094,2011.750
1764838523.5096471,0,0,13070,1633.750
1764838523.5136359,0,0,22895,2861.875
1764838523.5176265,0,0,25717,3214.625
1764838523.5216448,0,0,22121,2765.125
1764838523.5256479,1,1,15848,1981.000
1764838523.529646,0,0,12810,1601.250
1764838523.5336509,0,0,22245,2780.625
1764838523.5376534,0,0,25720,3215.000
1764838523.5416415,0,0,22161,2770.125
1764838523.5456305,1,1,15867,1983.375
1764838523.5496297,0,0,12789,1598.625
1764838523.553631,0,0,21975,2746.875
1764838523.5576296,0,0,25695,3211.875
1764838523.5616393,0,0,21963,2745.375
1764838523.5656302,1,1,15673,1959.125
1764838523.5696304,0,0,12666,1583.250
1764838523.5736687,0,0,21858,2732.250
1764838523.5776472,0,0,25760,3220.000
1764838523.581652,0,0,22632,2829.000
1764838523.585644,1,1,16263,2032.875
1764838523.5896451,0,0,12837,1604.625
1764838523.5936506,0,0,21476,2684.500
1764838523.5976446,0,0,25760,3220.000
1764838523.601649,0,0,22653,2831.625
1764838523.605643,1,1,16261,2032.625
1764838523.6096466,0,0,12772,1596.500
1764838523.6136484,0,0,21070,2633.750
1764838523.6176455,0,0,25761,3220.125
1764838523.6216476,0,0,22694,2836.750
1764838523.6256425,1,1,16279,2034.875
1764838523.6350641,0,0,25789,3223.625
1764838523.6376686,0,0,25789,3223.625
1764838523.6416504,0,0,23157,2894.625
1764838523.6456313,1,1,16743,2092.875
1764838523.6496315,0,0,12892,1611.500
1764838523.6536505,0,0,20275,2534.375
1764838523.657647,0,0,25775,3221.875
1764838523.6616428,0,0,22962,2870.250
1764838523.6656282,1,1,16509,2063.625
1764838523.6696277,0,0,12759,1594.875
1764838523.6736906,0,0,20324,2540.500
1764838523.6776488,0,0,25817,3227.125
1764838523.6816514,0,0,24059,3007.375
1764838523.6856403,1,1,17811,2226.375
1764838523.689642,0,0,13334,1666.750
1764838523.6936436,0,0,19732,2466.500
1764838523.6976361,0,0,25798,3224.750
1764838523.7016516,0,0,23529,2941.125
1764838523.7056448,1,1,17108,2138.500
1764838523.7096424,0,0,12976,1622.000
1764838523.7136462,0,0,19348,2418.500
1764838523.7176435,0,0,25805,3225.625
1764838523.721649,0,0,23707,2963.375
1764838523.7256415,1,1,17304,2163.000
1764838523.7296417,0,0,13048,1631.000
1764838523.7336478,0,0,25812,3226.500
1764838523.737644,0,0,23990,2998.750
1764838523.7416513,0,0,17666,2208.250
1764838523.745652,1,1,13214,1651.750
1764838523.7496674,0,0,18862,2357.750
1764838523.7536376,0,0,25819,3227.375
1764838523.757629,0,0,24265,3033.125
1764838523.7616427,0,0,18050,2256.250
1764838523.7656436,1,1,13397,1674.625
1764838523.7696416,0,0,18492,2311.500
1764838523.7736354,0,0,25819,3227.375
1764838523.7776651,0,0,24288,3036.000
1764838523.781644,0,0,18078,2259.750
1764838523.785645,1,1,13392,1674.000
1764838523.7896438,0,0,18110,2263.750
1764838523.7936573,0,0,25829,3228.625
1764838523.7976458,0,0,24588,3073.500
1764838523.8016405,0,0,18562,2320.250
1764838523.805627,1,1,13647,1705.875
1764838523.8096247,0,0,17144,2143.000
1764838523.8136451,0,0,25804,3225.500
1764838523.8176444,0,0,24135,3016.875
1764838523.8216481,0,0,17825,2228.125
1764838523.8256433,1,1,13248,1656.000
1764838523.8296428,0,0,17055,2131.875
1764838523.8337278,0,0,25824,3228.000
1764838523.8376603,0,0,24689,3086.125
1764838523.841647,0,0,18736,2342.000
1764838523.8456428,1,1,13725,1715.625
1764838523.8496435,0,0,16841,2105.125
1764838523.853643,0,0,25826,3228.250
1764838523.85764,0,0,24835,3104.375
1764838523.861638,0,0,19019,2377.375
1764838523.865629,1,1,13883,1735.375
1764838523.8696249,0,0,16369,2046.125
1764838523.8736453,0,0,25809,3226.125
1764838523.8776782,0,0,24675,3084.375
1764838523.8816469,0,0,18701,2337.625
1764838523.8856406,1,1,13696,1712.000
1764838523.889642,0,0,15822,1977.750
1764838523.893648,0,0,25762,3220.250
1764838523.8976388,0,0,24593,3074.125
1764838523.9016411,0,0,18531,2316.375
1764838523.9056416,1,1,13586,1698.250
1764838523.9096453,0,0,15847,1980.875
1764838523.9136436,0,0,25824,3228.000
1764838523.9176378,0,0,25221,3152.625
1764838523.9216454,0,0,19939,2492.375
1764838523.9256423,1,1,14422,1802.750
1764838523.9296412,0,0,15570,1946.250
1764838523.933643,0,0,25743,3217.875
1764838523.9376373,0,0,24920,3115.000
1764838523.9416397,0,0,19182,2397.750
1764838523.9456518,1,1,13930,1741.250
1764838523.9496465,0,0,15080,1885.000
1764838523.953631,0,0,25733,3216.625
1764838523.9576216,0,0,25263,3157.875
1764838523.9616373,0,0,20054,2506.750
1764838523.9656441,1,1,14472,1809.000
1764838523.969641,0,0,14861,1857.625
1764838523.9736345,0,0,25661,3207.625
1764838523.977622,0,0,25308,3163.500
1764838523.9816425,0,0,20182,2522.750
1764838523.9856439,1,1,14550,1818.750
1764838523.989644,0,0,14372,1796.500
1764838523.9936464,0,0,25298,3162.250
1764838523.997637,0,0,24892,3111.500
1764838524.001647,0,0,19101,2387.625
1764838524.0056424,1,1,13845,1730.625
1764838524.0096426,0,0,13843,1730.375
1764838524.013646,0,0,25267,3158.375
1764838524.0176375,0,0,25322,3165.250
1764838524.0216315,0,0,20211,2526.375
1764838524.0256224,1,1,14537,1817.125
1764838524.0296252,0,0,13833,1729.125
1764838524.0337296,0,0,25102,3137.750
1764838524.0376558,0,0,25256,3157.000
1764838524.0416372,0,0,20010,2501.250
1764838524.0456238,1,1,14395,1799.375
1764838524.0496235,0,0,13638,1704.750
1764838524.0536277,0,0,25060,3132.500
1764838524.0576255,0,0,25468,3183.500
1764838524.061639,0,0,20703,2587.875
1764838524.065635,1,1,14848,1856.000
1764838524.0696332,0,0,13667,1708.375
1764838524.0736444,0,0,24975,3121.875
1764838524.0776398,0,0,25568,3196.000
1764838524.0816822,0,0,21146,2643.250
1764838524.0856369,1,1,15168,1896.000
1764838524.0896387,0,0,13540,1692.500
1764838524.0936449,0,0,24672,3084.000
1764838524.0976388,0,0,25554,3194.250
1764838524.1016402,0,0,21075,2634.375
1764838524.105634,1,1,15102,1887.750
1764838524.1096349,0,0,13364,1670.500
1764838524.1136434,0,0,24498,3062.250
1764838524.1176376,0,0,25641,3205.125
1764838524.1216395,0,0,21531,2691.375
1764838524.1256351,1,1,15439,1929.875
1764838524.1296344,0,0,13328,1666.000
1764838524.1336432,0,0,24234,3029.250
1764838524.1376376,0,0,25603,3200.375
1764838524.1416407,0,0,21301,2662.625
1764838524.1456373,1,1,15260,1907.500
1764838524.149641,0,0,13110,1638.750
1764838524.1536329,0,0,23873,2984.125
1764838524.1576223,0,0,25593,3199.125
1764838524.1616356,0,0,21269,2658.625
1764838524.165635,1,1,15197,1899.625
1764838524.1696343,0,0,13037,1629.625
1764838524.1736293,0,0,23708,2963.500
1764838524.1776214,0,0,25663,3207.875
1764838524.1816473,0,0,21673,2709.125
1764838524.1856358,1,1,15503,1937.875
1764838524.1896353,0,0,12976,1622.000
1764838524.1936407,0,0,23330,2916.250
1764838524.197638,0,0,25719,3214.875
1764838524.2016454,0,0,22118,2764.750
1764838524.2056353,1,1,15865,1983.125
1764838524.2096357,0,0,12981,1622.625
1764838524.213638,0,0,22848,2856.000
1764838524.2176375,0,0,25729,3216.125
1764838524.2216446,0,0,22220,2777.500
1764838524.225638,1,1,15940,1992.500
1764838524.2296345,0,0,12930,1616.250
1764838524.2337062,0,0,22539,2817.375
1764838524.2376513,0,0,25729,3216.125
1764838524.2417037,0,0,22234,2779.250
1764838524.2460127,1,1,15932,1991.500
1764838524.249701,0,0,12949,1618.625
1764838524.253646,0,0,22991,2873.875
1764838524.2576377,0,0,25804,3225.500
1764838524.2616456,0,0,23429,2928.625
1764838524.2656367,1,1,17122,2140.250
1764838524.2696326,0,0,13317,1664.625
1764838524.2736373,0,0,22299,2787.375
1764838524.277633,0,0,25784,3223.000
1764838524.2816784,0,0,22998,2874.750
1764838524.2856362,1,1,16638,2079.750
1764838524.2896311,0,0,13032,1629.000
1764838524.2936347,0,0,21963,2745.375
1764838524.2976322,0,0,25784,3223.000
1764838524.3016388,0,0,23023,2877.875
1764838524.3056343,1,1,16637,2079.625
1764838524.3096335,0,0,12948,1618.500
1764838524.3136346,0,0,21116,2639.500
1764838524.317631,0,0,25754,3219.250
1764838524.3216438,0,0,22579,2822.375
1764838524.3256402,1,1,16172,2021.500
1764838524.3296366,0,0,12732,1591.500
1764838524.3336382,0,0,21266,2658.250
1764838524.3376322,0,0,25803,3225.375
1764838524.3416393,0,0,23521,2940.125
1764838524.3456347,1,1,17154,2144.250
1764838524.349635,0,0,13100,1637.500
1764838524.3536615,0,0,20736,2592.000
1764838524.35764,0,0,25780,3222.500
1764838524.36163,0,0,23032,2879.000
1764838524.3656209,1,1,16599,2074.875
1764838524.3696194,0,0,12820,1602.500
1764838524.3736355,0,0,20350,2543.750
1764838524.3776326,0,0,25793,3224.125
1764838524.3816633,0,0,23350,2918.750
1764838524.3856192,1,1,16916,2114.500
1764838524.389627,0,0,12926,1615.750
1764838524.393642,0,0,19936,2492.000
1764838524.3976324,0,0,25783,3222.875
1764838524.4016376,0,0,23140,2892.500
1764838524.4056354,1,1,16667,2083.375
1764838524.4096348,0,0,12795,1599.375
1764838524.4136412,0,0,19896,2487.000
1764838524.4176333,0,0,25819,3227.375
1764838524.4216337,0,0,24142,3017.750
1764838524.425636,1,1,17902,2237.750
1764838524.429635,0,0,13346,1668.250
1764838524.4337215,0,0,19376,2422.000
1764838524.4376483,0,0,25816,3227.000
1764838524.4416368,0,0,24096,3012.000
1764838524.445617,1,1,17804,2225.500
1764838524.4496205,0,0,13292,1661.500
1764838524.453637,0,0,19067,2383.375
1764838524.4576328,0,0,25817,3227.125
1764838524.461629,0,0,24116,3014.500
1764838524.4656184,1,1,17821,2227.625
1764838524.4696202,0,0,13284,1660.500
1764838524.4736392,0,0,18455,2306.875
1764838524.4776347,0,0,25822,3227.750
1764838524.4816356,0,0,24317,3039.625
1764838524.4856703,1,1,18121,2265.125
1764838524.4896367,0,0,13420,1677.500
1764838524.4936414,0,0,18192,2274.000
1764838524.4976337,0,0,25823,3227.875
1764838524.5016308,0,0,24441,3055.125
1764838524.505634,1,1,18311,2288.875
1764838524.5096376,0,0,13512,1689.000
1764838524.5136292,0,0,17684,2210.500
1764838524.5176196,0,0,25804,3225.500
1764838524.5216286,0,0,23979,2997.375
1764838524.525628,1,1,13138,1642.250
1764838524.5296302,0,0,17566,2195.750
1764838524.5336297,0,0,25840,3230.000
1764838524.5376167,0,0,25004,3125.500
1764838524.5416315,0,0,19407,2425.875
1764838524.5456326,1,1,14131,1766.375
1764838524.5496304,0,0,16981,2122.625
1764838524.553628,0,0,25814,3226.750
1764838524.5576167,0,0,24440,3055.000
1764838524.561631,0,0,18286,2285.750
1764838524.5656302,1,1,13470,1683.750
1764838524.5696297,0,0,16947,2118.375
1764838524.5736392,0,0,25838,3229.750
1764838524.5776343,0,0,25084,3135.500
1764838524.5816352,0,0,19583,2447.875
1764838524.5856442,1,1,14213,1776.625
1764838524.5896323,0,0,16482,2060.250
1764838524.593638,0,0,25827,3228.375
1764838524.597633,0,0,24967,3120.875
1764838524.6016345,0,0,19291,2411.375
1764838524.6056306,1,1,14031,1753.875
1764838524.609629,0,0,15890,1986.250
1764838524.613635,0,0,25785,3223.125
1764838524.6176322,0,0,24816,3102.000
1764838524.6216345,0,0,18962,2370.250
1764838524.6256285,1,1,13821,1727.625
1764838524.6296294,0,0,15649,1956.125
1764838524.6390336,0,0,25255,3156.875
1764838524.6416633,0,0,20014,2501.750
1764838524.6456368,1,1,14467,1808.375
1764838524.6496303,0,0,15387,1923.375
1764838524.6536283,0,0,25723,3215.375
1764838524.6576185,0,0,25003,3125.375
1764838524.6616297,0,0,19369,2421.125
1764838524.665632,1,1,14046,1755.750
1764838524.6696298,0,0,14910,1863.750
1764838524.6736226,0,0,25694,3211.750
1764838524.6776152,0,0,25266,3158.250
1764838524.681635,0,0,20048,2506.000
1764838524.6856728,1,1,14465,1808.125
1764838524.6896327,0,0,14837,1854.625
1764838524.6936357,0,0,25680,3210.000
1764838524.697629,0,0,25411,3176.375
1764838524.701635,0,0,20515,2564.375
1764838524.7056317,1,1,14773,1846.625
1764838524.7096298,0,0,14506,1813.250
1764838524.713632,0,0,25544,3193.000
1764838524.717629,0,0,25446,3180.750
1764838524.721633,0,0,20642,2580.250
1764838524.7256315,1,1,14846,1855.750
1764838524.7296305,0,0,14218,1777.250
1764838524.733624,0,0,25312,3164.000
1764838524.737613,0,0,25316,3164.500
1764838524.7416327,0,0,20180,2522.500
1764838524.7456312,1,1,14512,1814.000
1764838524.7496314,0,0,13778,1722.250
1764838524.753634,0,0,25004,3125.500
1764838524.7576282,0,0,25197,3149.625
1764838524.7616327,0,0,19841,2480.125
1764838524.7656322,1,1,14277,1784.625
1764838524.769631,0,0,13623,1702.875
1764838524.7736394,0,0,24998,3124.750
1764838524.77764,0,0,25429,3178.625
1764838524.7816257,0,0,20560,2570.000
1764838524.7856166,1,1,14745,1843.125
1764838524.789651,0,0,13596,1699.500
1764838524.79363,0,0,24951,3118.875
1764838524.797627,0,0,25587,3198.375
1764838524.8016248,0,0,21231,2653.875
1764838524.805614,1,1,15235,1904.375
1764838524.8096144,0,0,13537,1692.125
1764838524.8136346,0,0,24512,3064.000
1764838524.8176258,0,0,25410,3176.250
1764838524.8216338,0,0,20489,2561.125
1764838524.8256288,1,1,14666,1833.250
1764838524.8296387,0,0,13232,1654.000
1764838524.8336346,0,0,24514,3064.250
1764838524.8377013,0,0,25645,3205.625
1764838524.8416338,0,0,21554,2694.250
1764838524.8456266,1,1,15447,1930.875
1764838524.8496144,0,0,13322,1665.250
1764838524.8536336,0,0,24179,3022.375
1764838524.8576272,0,0,25619,3202.375
1764838524.8616304,0,0,21401,2675.125
1764838524.8656132,1,1,15320,1915.000
1764838524.869614,0,0,13121,1640.125
1764838524.873632,0,0,23772,2971.500
1764838524.877628,0,0,25629,3203.625
1764838524.8816304,0,0,21451,2681.375
1764838524.8856363,1,1,15356,1919.500
1764838524.8896666,0,0,12901,1612.625
1764838524.8936393,0,0,22928,2866.000
1764838524.8976295,0,0,25440,3180.000
1764838524.901638,0,0,20601,2575.125
1764838524.905629,1,1,14667,1833.375
1764838524.90965,0,0,12736,1592.000
1764838524.913628,0,0,23375,2921.875
1764838524.9176135,0,0,25755,3219.375
1764838524.9216266,0,0,22524,2815.500
1764838524.9256368,1,1,16235,2029.375
1764838524.9296286,0,0,13146,1643.250
1764838524.9336255,0,0,22916,2864.500
1764838524.9376128,0,0,25714,3214.250
1764838524.9416242,0,0,22088,2761.000
1764838524.9456296,1,1,15812,1976.500
1764838524.9496264,0,0,12892,1611.500
1764838524.953631,0,0,22568,2821.000
1764838524.957627,0,0,25743,3217.875
1764838524.961626,0,0,22391,2798.875
1764838524.9656231,1,1,16066,2008.250
1764838524.9696245,0,0,12910,1613.750
1764838524.9736326,0,0,22351,2793.875
1764838524.9776297,0,0,25723,3215.375
1764838524.9816272,0,0,22186,2773.250
1764838524.9856234,1,1,15856,1982.000
1764838524.9896576,0,0,12779,1597.375
1764838524.993632,0,0,22226,2778.250
1764838524.9976263,0,0,25795,3224.375
1764838525.001627,0,0,23309,2913.625
1764838525.005623,1,1,16961,2120.125
1764838525.009623,0,0,13135,1641.875
1764838525.0136313,0,0,21834,2729.250
1764838525.0176241,0,0,25799,3224.875
1764838525.0216258,0,0,23403,2925.375
1764838525.0256236,1,1,17043,2130.375
1764838525.0296204,0,0,13150,1643.750
1764838525.0336251,0,0,21665,2708.125
1764838525.037696,0,0,25805,3225.625
1764838525.0416331,0,0,23580,2947.500
1764838525.0456092,1,1,17230,2153.750
1764838525.0496063,0,0,13170,1646.250
1764838525.0536144,0,0,20890,2611.250
1764838525.0576117,0,0,25776,3222.000
1764838525.0616212,0,0,22948,2868.500
1764838525.0656111,1,1,16505,2063.125
1764838525.0696075,0,0,12813,1601.625
1764838525.073629,0,0,20712,2589.000
1764838525.0776284,0,0,25803,3225.375
1764838525.0816338,0,0,23548,2943.500
1764838525.085626,1,1,17159,2144.875
1764838525.0896244,0,0,13064,1633.000
1764838525.0936313,0,0,20220,2527.500
1764838525.0976267,0,0,25784,3223.000
1764838525.1016278,0,0,23146,2893.250
1764838525.1056266,1,1,16684,2085.500
1764838525.109622,0,0,12821,1602.625
1764838525.113625,0,0,20081,2510.125
1764838525.1176224,0,0,25813,3226.625
1764838525.1216278,0,0,23863,2982.875
1764838525.125625,1,1,17520,2190.000
1764838525.1296215,0,0,13178,1647.250
1764838525.1336277,0,0,19830,2478.750
1764838525.1376226,0,0,25819,3227.375
1764838525.1416256,0,0,24119,3014.875
1764838525.145623,1,1,17856,2232.000
1764838525.1496248,0,0,13325,1665.625
1764838525.1536303,0,0,18973,2371.625
1764838525.1576211,0,0,25805,3225.625
1764838525.161626,0,0,23800,2975.000
1764838525.1656227,1,1,17410,2176.250
1764838525.1696236,0,0,13093,1636.625
1764838525.1736271,0,0,18813,2351.625
1764838525.1776342,0,0,25802,3225.250
1764838525.1816266,0,0,23767,2970.875
1764838525.185611,1,1,17353,2169.125
1764838525.1896095,0,0,13048,1631.000
1764838525.1936722,0,0,18563,2320.375
1764838525.1976647,0,0,25809,3226.125
1764838525.201665,0,0,23985,2998.125
1764838525.205652,1,1,17622,2202.750
1764838525.209649,0,0,13163,1645.375
1764838525.2136707,0,0,18158,2269.750
1764838525.217666,0,0,25806,3225.750
1764838525.221669,0,0,23937,2992.125
1764838525.2256622,1,1,17545,2193.125
1764838525.2296658,0,0,13117,1639.625
1764838525.233668,0,0,17886,2235.750
1764838525.237737,0,0,25822,3227.750
1764838525.2417529,0,0,24440,3055.000
1764838525.2460322,1,1,18293,2286.625
1764838525.2497718,0,0,13496,1687.000
1764838525.253683,0,0,17967,2245.875
1764838525.257662,0,0,25840,3230.000
1764838525.2616663,0,0,25006,3125.750
1764838525.2656653,1,1,19409,2426.125
1764838525.269664,0,0,14127,1765.875
1764838525.2736714,0,0,17187,2148.375
1764838525.2776632,0,0,25829,3228.625
1764838525.2816644,0,0,24782,3097.750
1764838525.2856603,1,1,18912,2364.000
1764838525.2896616,0,0,13815,1726.875
1764838525.293763,0,0,25833,3229.125
1764838525.297622,0,0,25833,3229.125
1764838525.3016355,0,0,19259,2407.375
1764838525.3056238,1,1,14016,1752.000
1764838525.3096292,0,0,16606,2075.750
1764838525.3136246,0,0,25833,3229.125
1764838525.3176198,0,0,25054,3131.750
1764838525.3216252,0,0,19504,2438.000
1764838525.3256204,1,1,14159,1769.875
1764838525.3296237,0,0,16075,2009.375
1764838525.3336167,0,0,25813,3226.625
1764838525.3376062,0,0,25011,3126.375
1764838525.3416224,0,0,19387,2423.375
1764838525.3456202,1,1,14074,1759.250
1764838525.3496175,0,0,15600,1950.000
1764838525.3536248,0,0,25786,3223.250
1764838525.3576207,0,0,25139,3142.375
1764838525.3616269,0,0,19701,2462.625
1764838525.365619,1,1,14251,1781.375
1764838525.3696182,0,0,15412,1926.500
1764838525.3736277,0,0,25771,3221.375
1764838525.377623,0,0,25281,3160.125
1764838525.381626,0,0,20093,2511.625
1764838525.3856163,1,1,14501,1812.625
1764838525.3896186,0,0,15220,1902.500
1764838525.39366,0,0,25758,3219.750
1764838525.3976212,0,0,25453,3181.625
1764838525.4016247,0,0,20677,2584.625
1764838525.405618,1,1,14892,1861.500
1764838525.409621,0,0,15021,1877.625
1764838525.413623,0,0,25680,3210.000
1764838525.4176197,0,0,25362,3170.250
1764838525.421625,0,0,20341,2542.625
1764838525.4256182,1,1,14644,1830.500
1764838525.4296181,0,0,14387,1798.375
1764838525.4336162,0,0,25457,3182.125
1764838525.4377038,0,0,25311,3163.875
1764838525.441638,0,0,20160,2520.000
1764838525.445606,1,1,14509,1813.625
1764838525.4496036,0,0,14274,1784.250
1764838525.4536188,0,0,25472,3184.000
1764838525.4576254,0,0,25525,3190.625
1764838525.4616175,0,0,20960,2620.000
1764838525.4656053,1,1,15066,1883.250
1764838525.4696019,0,0,14156,1769.500
1764838525.473622,0,0,25354,3169.250
1764838525.4776213,0,0,25606,3200.750
1764838525.4816272,0,0,21348,2668.500
1764838525.4856217,1,1,15347,1918.375
1764838525.489617,0,0,14028,1753.500
1764838525.4936595,0,0,25181,3147.625
1764838525.4976223,0,0,25625,3203.125
1764838525.5016253,0,0,21451,2681.375
1764838525.5056207,1,1,15420,1927.500
1764838525.5096188,0,0,13657,1707.125
1764838525.5136209,0,0,24705,3088.125
1764838525.517617,0,0,25557,3194.625
1764838525.521625,0,0,21077,2634.625
1764838525.5256193,1,1,15108,1888.500
1764838525.5296187,0,0,13514,1689.250
1764838525.5336244,0,0,24582,3072.750
1764838525.5376177,0,0,25545,3193.125
1764838525.541625,0,0,21023,2627.875
1764838525.5456207,1,1,15052,1881.500
1764838525.54962,0,0,13305,1663.125
1764838525.5536058,0,0,24210,3026.250
1764838525.5576015,0,0,25518,3189.750
1764838525.5616205,0,0,20901,2612.625
1764838525.5656223,1,1,14952,1869.000
1764838525.569621,0,0,13198,1649.750
1764838525.573623,0,0,24178,3022.250
1764838525.5776308,0,0,25617,3202.125
1764838525.5816224,0,0,21383,2672.875
1764838525.585606,1,1,15304,1913.000
1764838525.589604,0,0,13134,1641.750
1764838525.593621,0,0,23662,2957.750
1764838525.5976162,0,0,25499,3187.375
1764838525.601614,0,0,20821,2602.625
1764838525.605603,1,1,14855,1856.875
1764838525.6096025,0,0,12924,1615.500
1764838525.613621,0,0,23679,2959.875
1764838525.6176174,0,0,25702,3212.750
1764838525.6216207,0,0,21952,2744.000
1764838525.6256185,1,1,15735,1966.875
1764838525.629618,0,0,13066,1633.250
1764838525.6336174,0,0,23376,2922.000
1764838525.6430538,0,0,22302,2787.750
1764838525.6456351,1,1,16053,2006.625
1764838525.6496217,0,0,13040,1630.000
1764838525.6536212,0,0,22505,2813.125
1764838525.6576016,0,0,25629,3203.625
1764838525.6616151,0,0,21461,2682.625
1764838525.6656764,1,1,15287,1910.875
1764838525.6696265,0,0,12682,1585.250
1764838525.6736069,0,0,22524,2815.500
1764838525.6776001,0,0,25745,3218.125
1764838525.6816196,0,0,22406,2800.750
1764838525.685617,1,1,16083,2010.375
1764838525.6896162,0,0,12906,1613.250
1764838525.6936126,0,0,21955,2744.375
1764838525.6976442,0,0,25632,3204.000
1764838525.7016215,0,0,21527,2690.875
1764838525.7056184,1,1,15311,1913.875
1764838525.7096167,0,0,12569,1571.125
1764838525.7136173,0,0,21953,2744.125
1764838525.7176235,0,0,25725,3215.625
1764838525.7216246,0,0,22217,2777.125
1764838525.7256012,1,1,15875,1984.375
1764838525.7296023,0,0,12709,1588.625
1764838525.7336223,0,0,21749,2718.625
1764838525.7376187,0,0,25787,3223.375
1764838525.7416131,0,0,23132,2891.500
1764838525.7456002,1,1,16749,2093.625
1764838525.749602,0,0,13008,1626.000
1764838525.7536206,0,0,21418,2677.250
1764838525.7576175,0,0,25799,3224.875
1764838525.761622,0,0,23431,2928.875
1764838525.7656133,1,1,17059,2132.375
1764838525.769612,0,0,13075,1634.375
1764838525.7736115,0,0,20546,2568.250
1764838525.7776015,0,0,25769,3221.125
1764838525.7816164,0,0,22824,2853.000
1764838525.785614,1,1,16392,2049.000
1764838525.789614,0,0,12754,1594.250
1764838525.793617,0,0,20121,2515.125
1764838525.7976496,0,0,25761,3220.125
1764838525.8016121,0,0,22732,2841.500
1764838525.805597,1,1,16284,2035.500
1764838525.809599,0,0,12681,1585.125
1764838525.8136194,0,0,19931,2491.375
1764838525.8176165,0,0,25786,3223.250
1764838525.8216217,0,0,23195,2899.375
1764838525.8256137,1,1,16746,2093.250
1764838525.8296132,0,0,12843,1605.375
1764838525.8336122,0,0,19467,2433.375
1764838525.8376138,0,0,25772,3221.500
1764838525.8416977,0,0,22943,2867.875
1764838525.8456264,1,1,16461,2057.625
1764838525.8496141,0,0,12705,1588.125
1764838525.85361,0,0,18982,2372.750
1764838525.8575993,0,0,25758,3219.750
1764838525.8616135,0,0,22807,2850.875
1764838525.8656168,1,1,16316,2039.500
1764838525.8696117,0,0,12634,1579.250
1764838525.873601,0,0,18569,2321.125
1764838525.8775988,0,0,25787,3223.375
1764838525.8816173,0,0,23376,2922.000
1764838525.8856156,1,1,16900,2112.500
1764838525.8896136,0,0,12862,1607.750
1764838525.8936193,0,0,18106,2263.250
1764838525.8976538,0,0,25774,3221.750
1764838525.9016204,0,0,23163,2895.375
1764838525.905617,1,1,16641,2080.125
1764838525.909613,0,0,12738,1592.250
1764838525.913611,0,0,17520,2190.000
1764838525.9176104,0,0,25778,3222.250
1764838525.9216208,0,0,23406,2925.750
1764838525.925616,1,1,16900,2112.500
1764838525.9296129,0,0,12842,1605.250
1764838525.933618,0,0,17426,2178.250
1764838525.937617,0,0,25784,3223.000
1764838525.9420137,0,0,23561,2945.125
1764838525.9456797,1,1,17072,2134.000
1764838525.9496171,0,0,12912,1614.000
1764838525.9536114,0,0,16717,2089.625
1764838525.957608,0,0,25723,3215.375
1764838525.9616122,0,0,23251,2906.375
1764838525.9656115,1,1,16713,2089.125
1764838525.9696105,0,0,12746,1593.250
1764838525.9736106,0,0,16470,2058.750
1764838525.9776094,0,0,25722,3215.250
1764838525.9818254,0,0,23458,2932.250
1764838525.985616,1,1,16940,2117.500
1764838525.9896142,0,0,12844,1605.500
1764838525.9936135,0,0,16343,2042.875
1764838525.9976106,0,0,25784,3223.000
1764838526.001615,0,0,24148,3018.500
1764838526.005614,1,1,17821,2227.625
1764838526.0096138,0,0,13254,1656.750
1764838526.0136232,0,0,15943,1992.875
1764838526.0176146,0,0,25761,3220.125
1764838526.021619,0,0,24380,3047.500
1764838526.0256197,1,1,18173,2271.625
1764838526.0296192,0,0,13432,1679.000
1764838526.0336158,0,0,15180,1897.500
1764838526.0376153,0,0,25395,3174.375
1764838526.0416994,0,0,23548,2943.500
1764838526.0456305,1,1,17039,2129.875
1764838526.0496185,0,0,12873,1609.125
1764838526.0536156,0,0,15033,1879.125
1764838526.0576005,0,0,25553,3194.125
1764838526.0616128,0,0,24201,3025.125
1764838526.0656087,1,1,17880,2235.000
1764838526.0696142,0,0,13260,1657.500
1764838526.073612,0,0,14593,1824.125
1764838526.0775976,0,0,25258,3157.250
1764838526.0816126,0,0,24016,3002.000
1764838526.0856047,1,1,17619,2202.375
1764838526.0896015,0,0,13977,1747.125
1764838526.09362,0,0,24735,3091.875
1764838526.097617,0,0,23712,2964.000
1764838526.1016557,0,0,17245,2155.625
1764838526.1056187,1,1,12954,1619.250
1764838526.109618,0,0,14062,1757.750
1764838526.1136172,0,0,25065,3133.125
1764838526.1176136,0,0,24294,3036.750
1764838526.1216192,0,0,18020,2252.500
1764838526.1256175,1,1,13306,1663.250
1764838526.1296177,0,0,13934,1741.750
1764838526.1336248,0,0,25051,3131.375
1764838526.1376178,0,0,24535,3066.875
1764838526.141612,0,0,18410,2301.250
1764838526.1456509,1,1,13505,1688.125
1764838526.1496375,0,0,13687,1710.875
1764838526.153621,0,0,24957,3119.625
1764838526.1576133,0,0,24839,3104.875
1764838526.1616158,0,0,18978,2372.250
1764838526.1656542,1,1,13818,1727.250
1764838526.169624,0,0,13523,1690.375
1764838526.173613,0,0,24660,3082.500
1764838526.1776013,0,0,24721,3090.125
1764838526.181614,0,0,18735,2341.875
1764838526.1856189,0,1,13656,1707.000
1764838526.1896162,0,0,13218,1652.250
1764838526.1936052,0,0,24113,3014.125
1764838526.1976006,0,0,24498,3062.250
1764838526.2016244,0,0,18348,2293.500
1764838526.2056122,0,0,13440,1680.000
1764838526.209611,0,0,13030,1628.750
1764838526.2136188,0,0,23839,2979.875
1764838526.217614,0,0,24538,3067.250
1764838526.221615,0,0,18427,2303.375
1764838526.225609,0,0,13480,1685.000
1764838526.2296126,0,0,12873,1609.125
1764838526.233615,0,0,23696,2962.000
1764838526.2376127,0,0,24737,3092.125
1764838526.2417536,0,0,18775,2346.875
1764838526.2459633,1,1,13645,1705.625
1764838526.2496874,0,0,12785,1598.125
1764838526.2536235,0,0,23404,2925.500
1764838526.2576103,0,0,24946,3118.250
1764838526.2616153,0,0,19211,2401.375
1764838526.2656097,0,0,13890,1736.250
1764838526.2696092,0,0,12672,1584.000
1764838526.2736127,0,0,23101,2887.625
1764838526.277608,0,0,24919,3114.875
1764838526.2816164,0,0,19161,2395.125
1764838526.2856097,0,0,13840,1730.000
1764838526.2896113,0,0,12573,1571.625
1764838526.2936223,0,0,22658,2832.250
1764838526.297612,0,0,24900,3112.500
1764838526.3018327,0,0,19136,2392.000
1764838526.3056033,0,0,13813,1726.625
1764838526.309603,0,0,12411,1551.375
1764838526.3136077,0,0,21625,2703.125
1764838526.3176007,0,0,24658,3082.250
1764838526.3216019,0,0,18794,2349.250
1764838526.3255963,0,0,13633,1704.125
1764838526.329596,0,0,12252,1531.500
1764838526.3336022,0,0,20274,2534.250
1764838526.3375967,0,0,23924,2990.500
1764838526.341621,0,0,18500,2312.500
1764838526.345616,0,0,13650,1706.250
1764838526.349611,0,0,12435,1554.375
1764838526.3536103,0,0,21686,2710.750
1764838526.3576145,0,0,25127,3140.875
1764838526.3616183,0,0,19690,2461.250
1764838526.3656096,0,0,14097,1762.125
1764838526.3696122,0,0,12299,1537.375
1764838526.3736193,0,0,21494,2686.750
1764838526.3776124,0,0,25392,3174.000
1764838526.381617,0,0,20458,2557.250
1764838526.3856115,0,0,14608,1826.000
1764838526.3896103,0,0,12326,1540.750
1764838526.3936179,0,0,20485,2560.625
1764838526.3976133,0,0,25161,3145.125
1764838526.401653,0,0,19858,2482.250
1764838526.4056115,0,0,14201,1775.125
1764838526.4096065,0,0,12193,1524.125
1764838526.413614,0,0,19761,2470.125
1764838526.4176135,0,0,24862,3107.750
1764838526.4216154,0,0,19532,2441.500
1764838526.4256084,0,0,14032,1754.000
1764838526.4296076,0,0,12156,1519.500
1764838526.433614,0,0,19837,2479.625
1764838526.4376116,0,0,25245,3155.625
1764838526.4417014,0,0,20171,2521.375
1764838526.4456217,0,0,14370,1796.250
1764838526.449613,0,0,12169,1521.125
1764838526.4536083,0,0,19498,2437.250
1764838526.4575958,0,0,25249,3156.125
1764838526.4616075,0,0,20247,2530.875
1764838526.4656122,0,0,14413,1801.625
1764838526.469609,0,1,12143,1517.875
1764838526.473602,0,0,19063,2382.875
1764838526.4775972,0,0,25246,3155.750
1764838526.4816115,0,0,20360,2545.000
1764838526.4856143,0,0,14473,1809.125
1764838526.4896107,0,0,12131,1516.375
1764838526.4936159,0,0,18611,2326.375
1764838526.4976137,0,0,25302,3162.750
1764838526.5016174,0,0,20628,2578.500
1764838526.5056517,0,0,14646,1830.750
1764838526.5096092,1,0,12153,1519.125
1764838526.5136127,0,0,18017,2252.125
1764838526.5176115,0,0,24450,3056.250
1764838526.5216138,0,0,19943,2492.875
1764838526.5256112,0,0,14387,1798.375
1764838526.5296087,0,0,12174,1521.750
1764838526.5336168,0,0,18561,2320.125
1764838526.537613,0,0,25601,3200.125
1764838526.5416157,0,0,21578,2697.250
1764838526.545611,0,0,15296,1912.000
1764838526.5496106,0,0,12300,1537.500
1764838526.5536032,0,0,17058,2132.250
1764838526.557596,0,0,24717,3089.625
1764838526.5616095,0,0,20694,2586.750
1764838526.5656111,0,0,14810,1851.250
1764838526.5696094,0,0,12223,1527.875
1764838526.573604,0,0,17268,2158.500
1764838526.577593,0,0,25187,3148.375
1764838526.5816054,0,0,21142,2642.750
1764838526.5856097,0,0,14987,1873.375
1764838526.589608,0,0,12210,1526.250
1764838526.5936096,0,0,16926,2115.750
1764838526.5976055,0,0,25346,3168.250
1764838526.601612,0,0,21575,2696.875
1764838526.6056235,0,0,15282,1910.250
1764838526.6096241,0,0,12281,1535.125
1764838526.613611,0,0,16743,2092.875
1764838526.6176038,0,0,25234,3154.250
1764838526.621609,0,0,21494,2686.750
1764838526.6256113,0,0,15217,1902.125
1764838526.6296096,1,0,12253,1531.625
1764838526.6336107,0,0,16670,2083.750
1764838526.6375926,0,0,25570,3196.250
1764838526.6470685,1,1,15901,1987.625
1764838526.6496277,1,1,12473,1559.125
1764838526.653617,0,0,16954,2119.250
1764838526.6576242,0,0,25755,3219.375
1764838526.6616106,0,0,23320,2915.000
1764838526.6656125,0,0,16826,2103.250
1764838526.6696103,1,0,12834,1604.250
1764838526.6736,0,0,15705,1963.125
1764838526.6775913,0,0,25171,3146.375
1764838526.6816094,0,0,22271,2783.875
1764838526.6856115,0,0,15837,1979.625
1764838526.6896064,1,0,12456,1557.000
1764838526.6937244,0,0,15383,1922.875
1764838526.6976101,0,0,25012,3126.500
1764838526.7016182,0,0,22294,2786.750
1764838526.705646,0,0,15864,1983.000
1764838526.7096126,1,0,12472,1559.000
1764838526.713612,0,0,14771,1846.375
1764838526.7176118,0,0,24317,3039.625
1764838526.7216296,0,0,22052,2756.500
1764838526.725597,0,0,15850,1981.250
1764838526.729593,0,0,12533,1566.625
1764838526.7336009,0,0,14862,1857.750
1764838526.7375913,0,0,24826,3103.250
1764838526.7416008,0,0,22590,2823.750
1764838526.7455924,0,0,16124,2015.500
1764838526.7495928,1,1,12548,1568.500
1764838526.7536113,0,0,14601,1825.125
1764838526.7576067,0,0,24921,3115.125
1764838526.761613,0,0,23045,2880.625
1764838526.7656076,0,0,16532,2066.500
1764838526.7696087,0,0,12685,1585.625
1764838526.773614,0,0,14184,1773.000
1764838526.7776043,0,0,24148,3018.500
1764838526.7816112,0,0,22497,2812.125
1764838526.7856066,0,0,16208,2026.000
1764838526.7896082,1,1,12628,1578.500
1764838526.7936127,0,0,14067,1758.375
1764838526.7976046,0,0,24432,3054.000
1764838526.8016016,0,0,23104,2888.000
1764838526.8055925,0,0,16648,2081.000
1764838526.8096907,1,0,12742,1592.750
1764838526.8136413,0,0,13852,1731.500
1764838526.8176308,0,0,24347,3043.375
1764838526.821651,0,0,23272,2909.000
1764838526.8256507,0,0,16812,2101.500
1764838526.8296509,1,0,12795,1599.375
1764838526.8336582,0,0,13379,1672.375
1764838526.8376489,0,0,23432,2929.000
1764838526.841652,0,0,22810,2851.250
1764838526.845729,0,0,16657,2082.125
1764838526.8496644,1,1,12827,1603.375
1764838526.8536556,0,0,13471,1683.875
1764838526.8576427,0,0,23882,2985.250
1764838526.86165,0,0,23415,2926.875
1764838526.8656528,0,0,17011,2126.375
1764838526.869653,1,1,12877,1609.625
1764838526.8736436,0,0,13092,1636.500
1764838526.8776343,0,0,22939,2867.375
1764838526.8816526,0,0,22975,2871.875
1764838526.8856478,0,0,16926,2115.750
1764838526.8896477,1,1,12960,1620.000
1764838526.8936584,0,0,12985,1623.125
1764838526.8976474,0,0,22710,2838.750
1764838526.901646,0,0,23148,2893.500
1764838526.9056473,0,0,17132,2141.500
1764838526.909752,1,1,13036,1629.500
1764838526.9136138,0,0,12938,1617.250
1764838526.9176037,0,0,22505,2813.125
1764838526.9216094,0,0,23119,2889.875
1764838526.9256027,0,0,17165,2145.625
1764838526.929603,1,1,13057,1632.125
1764838526.9336123,0,0,12890,1611.250
1764838526.9376068,0,0,23394,2924.250
1764838526.9416082,0,0,24399,3049.875
1764838526.9456,0,0,18221,2277.625
1764838526.9496062,1,1,13388,1673.500
1764838526.953611,0,0,12595,1574.375
1764838526.957606,0,0,22106,2763.250
1764838526.961607,0,0,23811,2976.375
1764838526.9656043,0,0,17816,2227.000
1764838526.9696085,1,1,13286,1660.750
1764838526.973612,0,0,12575,1571.875
1764838526.9776025,0,0,21378,2672.250
1764838526.9816065,0,0,23113,2889.125
1764838526.9856038,0,0,17518,2189.750
1764838526.989604,1,1,13274,1659.250
1764838526.9936054,0,0,12630,1578.750
1764838526.9976056,0,0,21862,2732.750
1764838527.0016065,0,0,24145,3018.125
1764838527.0056016,0,0,18153,2269.125
1764838527.0096366,1,1,13388,1673.500
1764838527.0136135,0,0,12462,1557.750
1764838527.0176053,0,0,22116,2764.500
1764838527.021615,0,0,24765,3095.625
1764838527.0256112,0,0,18911,2363.875
1764838527.0296023,1,1,13708,1713.500
1764838527.0336077,0,0,12371,1546.375
1764838527.0375881,0,0,21639,2704.875
1764838527.0416014,0,0,24739,3092.375
1764838527.04567,0,0,18916,2364.500
1764838527.0496132,1,1,13705,1713.125
1764838527.0536046,0,0,12310,1538.750
1764838527.0575898,0,0,21482,2685.250
1764838527.0616016,0,0,24964,3120.500
1764838527.0656013,0,0,19352,2419.000
1764838527.0695996,1,1,13936,1742.000
1764838527.0735965,0,0,12310,1538.750
1764838527.0775895,0,0,21164,2645.500
1764838527.0816157,0,0,19452,2431.500
1764838527.085602,0,0,13983,1747.875
1764838527.0895982,1,1,12224,1528.000
1764838527.0936012,0,0,20517,2564.625
1764838527.0976143,0,0,24912,3114.000
1764838527.1016035,0,0,19388,2423.500
1764838527.1055868,0,0,13952,1744.000
1764838527.1095846,1,1,12181,1522.625
1764838527.113613,0,0,19641,2455.125
1764838527.117604,0,0,24581,3072.625
1764838527.1216116,0,0,19310,2413.750
1764838527.1256108,0,0,14004,1750.500
1764838527.1296015,1,1,12189,1523.625
1764838527.1336088,0,0,18443,2305.375
1764838527.1375885,0,0,23261,2907.625
1764838527.1416018,0,0,18692,2336.500
1764838527.145599,0,0,13934,1741.750
1764838527.1496017,1,1,12333,1541.625
1764838527.153596,0,0,19714,2464.250
1764838527.157586,0,0,25220,3152.500
1764838527.161602,0,0,20148,2518.500
1764838527.1655998,0,0,14356,1794.500
1764838527.1695952,1,1,12150,1518.750
1764838527.1736019,0,0,19256,2407.000
1764838527.1775966,0,0,25191,3148.875
1764838527.181604,0,0,20195,2524.375
1764838527.1855996,0,0,14387,1798.375
1764838527.1895945,1,1,12139,1517.375
1764838527.1936016,0,0,19125,2390.625
1764838527.1976013,0,0,25446,3180.750
1764838527.201604,0,0,20869,2608.625
1764838527.2055974,0,0,14816,1852.000
1764838527.2095954,1,1,12208,1526.000
1764838527.2137113,0,0,18464,2308.000
1764838527.2176445,0,0,25312,3164.000
1764838527.221649,0,0,20717,2589.625
1764838527.2256424,0,0,14712,1839.000
1764838527.2296374,1,1,12165,1520.625
1764838527.2336457,0,0,17867,2233.375
1764838527.2376435,0,0,25171,3146.375
1764838527.241706,0,0,20741,2592.625
1764838527.2460184,0,0,14746,1843.250
1764838527.24976,1,1,12169,1521.125
1764838527.2536592,0,0,17545,2193.125
1764838527.2576299,0,0,24866,3108.250
1764838527.2616296,0,0,20592,2574.000
1764838527.2656276,0,0,14698,1837.250
1764838527.2696257,1,1,12175,1521.875
1764838527.273627,0,0,17362,2170.250
1764838527.2776258,0,0,25153,3144.125
1764838527.281629,0,0,21019,2627.375
1764838527.285627,0,0,14918,1864.750
1764838527.289623,1,1,12192,1524.000
1764838527.293645,0,0,17170,2146.250
1764838527.2976365,0,0,25345,3168.125
1764838527.3017213,0,0,21436,2679.500
1764838527.305631,0,0,15181,1897.625
1764838527.3096263,1,1,12255,1531.875
1764838527.3137515,0,0,16713,2089.125
1764838527.317599,0,0,25180,3147.500
1764838527.3215919,0,0,21459,2682.375
1764838527.3255973,0,0,15220,1902.500
1764838527.3296006,1,1,12267,1533.375
1764838527.3336108,0,0,16753,2094.125
1764838527.337597,0,0,25425,3178.125
1764838527.3415885,0,0,21902,2737.750
1764838527.3455946,0,0,15523,1940.375
1764838527.3495977,1,1,12350,1543.750
1764838527.3535945,0,0,15863,1982.875
1764838527.3575928,0,0,24684,3085.500
1764838527.3615859,0,0,21500,2687.500
1764838527.3655832,0,0,15358,1919.750
1764838527.3695848,1,1,12359,1544.875
1764838527.3736,0,0,16178,2022.250
1764838527.3775964,0,0,25513,3189.125
1764838527.3815975,0,0,22624,2828.000
1764838527.3855963,0,0,16122,2015.250
1764838527.3895974,1,1,12539,1567.375
1764838527.3935986,0,0,15387,1923.375
1764838527.3975954,0,0,25161,3145.125
1764838527.4015958,0,0,22477,2809.625
1764838527.4055948,0,0,16012,2001.500
1764838527.409594,1,1,12508,1563.500
1764838527.4136324,0,0,15391,1923.875
1764838527.4175968,0,0,25295,3161.875
1764838527.4215949,0,0,22834,2854.250
1764838527.4255953,0,0,16325,2040.625
1764838527.4295957,1,1,12615,1576.875
1764838527.4335988,0,0,14956,1869.500
1764838527.4375942,0,0,24935,3116.875
1764838527.4415963,0,0,22605,2825.625
1764838527.445671,0,0,16131,2016.375
1764838527.449609,1,1,12537,1567.125
1764838527.4535956,0,0,14713,1839.125
1764838527.4575832,0,0,25078,3134.750
1764838527.4615939,0,0,23109,2888.625
1764838527.4655962,0,0,16587,2073.375
1764838527.4695952,1,1,12703,1587.875
1764838527.4735875,0,0,14467,1808.375
1764838527.4775846,0,0,25059,3132.375
1764838527.4815948,0,0,23483,2935.375
1764838527.4855957,0,0,16981,2122.625
1764838527.4895933,1,1,12867,1608.375
1764838527.4935985,0,0,14176,1772.000
1764838527.4975939,0,0,24868,3108.500
1764838527.501595,0,0,23589,2948.625
1764838527.5055926,0,0,17111,2138.875
1764838527.5095935,1,1,12921,1615.125
1764838527.513596,0,0,13909,1738.625
1764838527.5176308,0,0,24604,3075.500
1764838527.521597,0,0,23579,2947.375
1764838527.5255938,0,0,17109,2138.625
1764838527.5295942,1,1,12908,1613.500
1764838527.5336044,0,0,13721,1715.125
1764838527.5375957,0,0,24175,3021.875
1764838527.5415897,0,0,23264,2908.000
1764838527.5455787,0,0,16825,2103.125
1764838527.5495777,1,1,12792,1599.000
1764838527.5535796,0,0,13662,1707.750
1764838527.5575786,0,0,24667,3083.375
1764838527.5615742,0,0,24089,3011.125
1764838527.56558,0,0,17732,2216.500
1764838527.5695775,1,1,13175,1646.875
1764838527.5735927,0,0,13423,1677.875
1764838527.5775933,0,0,24168,3021.000
1764838527.581597,0,0,23939,2992.375
1764838527.5855951,0,0,17558,2194.750
1764838527.5895925,1,1,13083,1635.375
1764838527.5935857,0,0,13195,1649.375
1764838527.5975814,0,0,23903,2987.875
1764838527.6016645,0,0,24064,3008.000
1764838527.6056027,0,0,17735,2216.875
1764838527.6095936,1,1,13157,1644.625
1764838527.6135993,0,0,13028,1628.500
1764838527.61771,0,0,23797,2974.625
1764838527.6216502,0,0,24249,3031.125
1764838527.6256402,0,0,17989,2248.625
1764838527.629635,1,1,13267,1658.375
1764838527.633642,0,0,12883,1610.375
1764838527.6376376,0,0,23579,2947.375
1764838527.641644,0,0,24494,3061.750
1764838527.6523223,0,0,12911,1613.875
1764838527.6542354,0,0,12911,1613.875
1764838527.6576416,0,0,23841,2980.125
1764838527.6616433,0,0,24831,3103.875
1764838527.6656244,0,0,18964,2370.500
1764838527.669621,1,1,13761,1720.125
1764838527.6736357,0,0,12787,1598.375
1764838527.6776402,0,0,23211,2901.375
1764838527.6816382,0,0,24613,3076.625
1764838527.685629,0,0,18587,2323.375
1764838527.6896238,1,1,13546,1693.250
1764838527.6936257,0,0,12596,1574.500
1764838527.697619,0,0,23011,2876.375
1764838527.702142,0,0,25006,3125.750
1764838527.705655,0,0,19350,2418.750
1764838527.7096558,1,1,13965,1745.625
1764838527.713646,0,0,12626,1578.250
1764838527.717726,0,0,22893,2861.625
1764838527.7216005,0,0,25062,3132.750
1764838527.7255974,0,0,19495,2436.875
1764838527.7295926,1,1,14035,1754.375
1764838527.7335877,0,0,12527,1565.875
1764838527.737586,0,0,22198,2774.750
1764838527.7415986,0,0,24896,3112.000
1764838527.7456005,0,0,19162,2395.250
1764838527.749596,1,1,13826,1728.250
1764838527.7536037,0,0,12436,1554.500
1764838527.757585,0,0,22310,2788.750
1764838527.7615898,0,0,25237,3154.625
1764838527.7655947,0,0,19960,2495.000
1764838527.76959,1,1,14292,1786.500
1764838527.77358,0,0,12472,1559.000
1764838527.777575,0,0,22168,2771.000
1764838527.7815897,0,0,25320,3165.000
1764838527.7855923,0,0,20210,2526.250
1764838527.7895927,1,1,14439,1804.875
1764838527.7935903,0,0,12419,1552.375
1764838527.7975862,0,0,21613,2701.625
1764838527.8015847,0,0,25239,3154.875
1764838527.8055782,0,0,20006,2500.750
1764838527.8095772,1,1,14293,1786.625
1764838527.8135884,0,0,12332,1541.500
1764838527.8175855,0,0,21634,2704.250
1764838527.8215933,0,0,25558,3194.750
1764838527.8255932,0,0,21129,2641.125
1764838527.8295922,1,1,15059,1882.375
1764838527.8335893,0,0,12470,1558.750
1764838527.8375866,0,0,20835,2604.375
1764838527.8415878,0,0,25339,3167.375
1764838527.8455913,0,0,20350,2543.750
1764838527.8496807,1,1,14484,1810.500
1764838527.8536077,0,0,12274,1534.250
1764838527.8575761,0,0,21611,2701.375
1764838527.86159,0,0,25730,3216.250
1764838527.8655934,0,0,22289,2786.125
1764838527.8695939,1,1,15983,1997.875
1764838527.8735864,0,0,12701,1587.625
1764838527.8775744,0,0,19913,2489.125
1764838527.8815882,0,0,25370,3171.250
1764838527.8855906,0,0,20514,2564.250
1764838527.8895907,1,1,14566,1820.750
1764838527.8935921,0,0,12186,1523.250
1764838527.8975847,0,0,19569,2446.125
1764838527.9015822,0,0,25402,3175.250
1764838527.9055755,0,0,20667,2583.375
1764838527.9095783,1,1,14655,1831.875
1764838527.9135885,0,0,12176,1522.000
1764838527.9175851,0,0,20177,2522.125
1764838527.9216213,0,0,25729,3216.125
1764838527.925592,0,0,22331,2791.375
1764838527.92959,1,1,15949,1993.625
1764838527.9335887,0,0,12574,1571.750
1764838527.9375818,0,0,19503,2437.875
1764838527.9415894,0,0,25669,3208.625
1764838527.9455905,0,0,21879,2734.875
1764838527.949588,1,1,15531,1941.375
1764838527.9535894,0,0,12391,1548.875
1764838527.9575853,0,0,19126,2390.750
1764838527.9615858,0,0,25694,3211.750
1764838527.9655855,0,0,22096,2762.000
1764838527.9695892,1,1,15703,1962.875
1764838527.973587,0,0,12438,1554.750
1764838527.9775836,0,0,19138,2392.250
1764838527.981586,0,0,25753,3219.125
1764838527.985586,0,0,22734,2841.750
1764838527.9895887,1,1,16275,2034.375
1764838527.9935887,0,0,12638,1579.750
1764838527.997585,0,0,18584,2323.000
1764838528.001584,0,0,25749,3218.625
1764838528.0055988,0,0,22756,2844.500
1764838528.0095885,1,1,16274,2034.250
1764838528.0135844,0,0,12621,1577.625
1764838528.0175846,0,0,18419,2302.375
1764838528.021599,0,0,25780,3222.500
1764838528.0255861,0,0,23289,2911.125
1764838528.0295851,1,1,16809,2101.125
1764838528.033588,0,0,12837,1604.625
1764838528.037587,0,0,17638,2204.750
1764838528.0415838,0,0,25733,3216.625
1764838528.0455852,0,0,22750,2843.750
1764838528.0496712,1,1,12592,1574.000
1764838528.0536015,0,0,17545,2193.125
1764838528.057577,0,0,25777,3222.125
1764838528.0615833,0,0,23429,2928.625
1764838528.0655737,0,0,16946,2118.250
1764838528.0695763,1,1,12881,1610.125
1764838528.0735881,0,0,16925,2115.625
1764838528.0775855,0,0,25734,3216.750
1764838528.081582,0,0,23173,2896.625
1764838528.0855749,0,0,16650,2081.250
1764838528.089573,1,1,12744,1593.000
1764838528.0935912,0,0,16756,2094.500
1764838528.0975873,0,0,25768,3221.000
1764838528.1015816,0,0,23667,2958.375
1764838528.1055725,0,0,17203,2150.375
1764838528.1095734,1,1,12981,1622.625
1764838528.1135879,0,0,16142,2017.750
1764838528.1175852,0,0,25655,3206.875
1764838528.1216364,0,0,23387,2923.375
1764838528.1255968,0,0,16864,2108.000
1764838528.1295881,1,1,12817,1602.125
1764838528.1335866,0,0,15952,1994.000
1764838528.137584,0,0,25721,3215.125
1764838528.1415858,0,0,23992,2999.000
1764838528.1455848,0,0,17616,2202.000
1764838528.1495862,1,1,13157,1644.625
1764838528.1535814,0,0,15575,1946.875
1764838528.1575744,0,0,25677,3209.625
1764838528.161588,0,0,24183,3022.875
1764838528.165585,0,0,17879,2234.875
1764838528.1695843,1,1,13284,1660.500
1764838528.17359,0,0,14917,1864.625
1764838528.1775837,0,0,25429,3178.625
1764838528.1815841,0,0,23947,2993.375
1764838528.1855872,0,0,17536,2192.000
1764838528.189583,1,1,13106,1638.250
1764838528.1935866,0,0,14910,1863.750
1764838528.1975803,0,0,25501,3187.625
1764838528.201587,0,0,24250,3031.250
1764838528.2055843,0,0,17964,2245.500
1764838528.2095835,1,1,13302,1662.750
1764838528.2135882,0,0,14768,1846.000
1764838528.2175827,0,0,25524,3190.500
1764838528.2215838,0,0,24574,3071.750
1764838528.2256217,0,0,18491,2311.375
1764838528.2295833,1,1,13568,1696.000
1764838528.233584,0,0,14410,1801.250
1764838528.2375834,0,0,25319,3164.875
1764838528.2416472,0,0,24483,3060.375
1764838528.2459457,0,0,18336,2292.000
1764838528.249728,1,1,13481,1685.125
1764838528.2536178,0,0,14212,1776.500
1764838528.2575867,0,0,25300,3162.500
1764838528.2615857,0,0,24739,3092.375
1764838528.2655857,0,0,18792,2349.000
1764838528.2695937,1,1,13719,1714.875
1764838528.2735817,0,0,13976,1747.000
1764838528.277577,0,0,25108,3138.500
1764838528.281593,0,0,24712,3089.000
1764838528.2855752,0,0,18725,2340.625
1764838528.28957,1,1,13664,1708.000
1764838528.2935858,0,0,13669,1708.625
1764838528.297585,0,0,24806,3100.750
1764838528.3015783,0,0,24548,3068.500
1764838528.3055737,0,0,18431,2303.875
1764838528.3095708,1,1,13494,1686.750
1764838528.3135803,0,0,13503,1687.875
1764838528.317584,0,0,24852,3106.500
1764838528.3215864,0,0,25029,3128.625
1764838528.3256373,0,0,19392,2424.000
1764838528.329585,1,1,14025,1753.125
1764838528.3335881,0,0,13235,1654.375
1764838528.3375816,0,0,24075,3009.375
1764838528.3416326,0,0,24559,3069.875
1764838528.345598,0,0,18466,2308.250
1764838528.349597,1,1,13489,1686.125
1764838528.3535793,0,0,13067,1633.375
1764838528.3575685,0,0,24342,3042.750
1764838528.36158,0,0,25219,3152.375
1764838528.3655853,0,0,19877,2484.625
1764838528.369583,1,1,14313,1789.125
1764838528.3735814,0,0,13049,1631.125
1764838528.3775687,0,0,23757,2969.625
1764838528.3815825,0,0,24943,3117.875
1764838528.385584,0,0,19208,2401.000
1764838528.3895826,1,1,13889,1736.125
1764838528.393583,0,0,12844,1605.500
1764838528.3975785,0,0,23797,2974.625
1764838528.4015837,0,0,25287,3160.875
1764838528.4055824,0,0,20080,2510.000
1764838528.4095826,1,1,14413,1801.625
1764838528.4135847,0,0,12845,1605.625
1764838528.4175768,0,0,23464,2933.000
1764838528.4215834,0,0,25330,3166.250
1764838528.4256153,0,0,20214,2526.750
1764838528.4295833,1,1,14494,1811.750
1764838528.4335835,0,0,12723,1590.375
1764838528.4375806,0,0,22759,2844.875
1764838528.4415853,0,0,25136,3142.000
1764838528.4455853,0,0,19683,2460.375
1764838528.4496617,1,1,14130,1766.250
1764838528.4535983,0,0,12531,1566.375
1764838528.457573,0,0,22318,2789.750
1764838528.4615817,0,0,25186,3148.250
1764838528.4655848,0,0,19828,2478.500
1764838528.4695854,1,1,14207,1775.875
1764838528.4735744,0,0,12489,1561.125
1764838528.4775667,0,0,22265,2783.125
1764838528.4815786,0,0,25331,3166.375
1764838528.485584,0,0,20240,2530.000
1764838528.489583,1,1,14452,1806.500
1764838528.4935842,0,0,12466,1558.250
1764838528.4975762,0,0,22201,2775.125
1764838528.5015836,0,0,25511,3188.875
1764838528.505582,0,0,20900,2612.500
1764838528.5095816,1,1,14909,1863.625
1764838528.513584,0,0,12515,1564.375
1764838528.517577,0,0,21242,2655.250
1764838528.5215793,0,0,25335,3166.875
1764838528.525595,0,0,20300,2537.500
1764838528.52962,1,1,14463,1807.875
1764838528.5335991,0,0,12326,1540.750
1764838528.5375798,0,0,21036,2629.500
1764838528.541579,0,0,25349,3168.625
1764838528.5455813,0,0,20360,2545.000
1764838528.5495846,1,1,14488,1811.000
1764838528.5535898,0,0,12291,1536.375
1764838528.5575745,0,0,21056,2632.000
1764838528.5615637,0,0,25486,3185.750
1764838528.5655675,0,0,20846,2605.750
1764838528.569567,1,1,14816,1852.000
1764838528.5735812,0,0,12337,1542.125
1764838528.5775764,0,0,21065,2633.125
1764838528.5815852,0,0,25712,3214.000
1764838528.5855687,0,0,22121,2765.125
1764838528.5895674,1,1,15807,1975.875
1764838528.5935805,0,0,12599,1574.875
1764838528.5975783,0,0,20038,2504.750
1764838528.6015801,0,0,25589,3198.625
1764838528.6055763,0,0,21365,2670.625
1764838528.60958,1,1,15176,1897.000
1764838528.6135733,0,0,12347,1543.375
1764838528.617564,0,0,19679,2459.875
1764838528.62157,0,0,25636,3204.500
1764838528.6255782,0,0,21649,2706.125
1764838528.6295981,1,1,15378,1922.250
1764838528.6335819,0,0,12382,1547.750
1764838528.6375747,0,0,19675,2459.375
1764838528.641577,0,0,25710,3213.750
1764838528.6455789,0,0,22172,2771.500
1764838528.6552048,0,0,19250,2406.250
1764838528.6575952,0,0,19250,2406.250
1764838528.661583,0,0,25695,3211.875
1764838528.6655648,0,0,22088,2761.000
1764838528.6695693,1,1,15687,1960.875
1764838528.6735775,0,0,12423,1552.875
1764838528.6775737,0,0,18059,2257.375
1764838528.681573,0,0,25553,3194.125
1764838528.685566,0,0,21522,2690.250
1764838528.6895654,1,1,15236,1904.500
1764838528.6935818,0,0,12273,1534.125
1764838528.697578,0,0,18157,2269.625
1764838528.7015753,0,0,25665,3208.125
1764838528.7055805,0,0,22037,2754.625
1764838528.7095816,1,1,15632,1954.000
1764838528.713581,0,0,12390,1548.750
1764838528.7175791,0,0,17422,2177.750
1764838528.7215776,0,0,25562,3195.250
1764838528.7255769,0,0,21850,2731.250
1764838528.7296164,1,1,15480,1935.000
1764838528.7335856,0,0,12333,1541.625
1764838528.7375767,0,0,17750,2218.750
1764838528.7415774,0,0,25748,3218.500
1764838528.7455764,0,0,22887,2860.875
1764838528.7495768,1,1,16398,2049.750
1764838528.7535799,0,0,12671,1583.875
1764838528.7575762,0,0,17250,2156.250
1764838528.761579,0,0,25707,3213.375
1764838528.7656014,0,0,22681,2835.125
1764838528.76958,1,1,16171,2021.375
1764838528.7735744,0,0,12575,1571.875
1764838528.7775652,0,0,16917,2114.625
1764838528.7815747,0,0,25760,3220.000
1764838528.7855763,0,0,23420,2927.500
1764838528.7895756,1,1,16929,2116.125
1764838528.7935693,0,0,12882,1610.250
1764838528.7975657,0,0,16407,2050.875
1764838528.8015628,0,0,25685,3210.625
1764838528.8055716,0,0,23268,2908.500
1764838528.8095624,0,1,16748,2093.500
1764838528.8135655,0,0,12800,1600.000
1764838528.817564,0,0,15807,1975.875
1764838528.8215356,0,0,25506,3188.250
1764838528.8255773,0,0,23036,2879.500
1764838528.8295763,0,1,16507,2063.375
1764838528.8336105,0,0,12689,1586.125
1764838528.837584,0,0,15530,1941.250
1764838528.8415775,0,0,25393,3174.125
1764838528.8455753,0,0,22960,2870.000
1764838528.8495743,0,0,16416,2052.000
1764838528.8536768,0,0,12650,1581.250
1764838528.8575923,0,0,15430,1928.750
1764838528.861574,0,0,25616,3202.000
1764838528.8655663,0,0,23979,2997.375
1764838528.8695638,0,0,17580,2197.500
1764838528.873573,0,0,13158,1644.750
1764838528.8775752,0,0,14786,1848.250
1764838528.8815722,0,0,25130,3141.250
1764838528.8855612,0,0,23307,2913.375
1764838528.8895626,0,0,16786,2098.250
1764838528.8935666,0,0,12789,1598.625
1764838528.8975635,0,0,14292,1786.500
1764838528.9015684,0,0,24664,3083.000
1764838528.9055786,0,0,23043,2880.375
1764838528.9095745,0,0,16549,2068.625
1764838528.913576,0,0,12702,1587.750
1764838528.9175704,0,0,14295,1786.875
1764838528.9215772,0,0,25116,3139.500
1764838528.925575,0,0,23905,2988.125
1764838528.9295745,0,0,17464,2183.000
1764838528.9335911,0,0,13081,1635.125
1764838528.9375734,0,0,13863,1732.875
1764838528.9415722,0,0,24580,3072.500
1764838528.9455743,0,0,23603,2950.375
1764838528.9495723,0,0,17120,2140.000
1764838528.9535732,0,0,12918,1614.750
1764838528.9575703,0,0,13665,1708.125
1764838528.961602,0,0,24434,3054.250
1764838528.965589,0,0,23757,2969.625
1764838528.9695742,0,0,17309,2163.625
1764838528.9735687,0,0,12997,1624.625
1764838528.9775612,0,0,13300,1662.500
1764838528.9815683,0,0,23917,2989.625
1764838528.9855735,0,0,23718,2964.750
1764838528.9895735,0,0,17300,2162.500
1764838528.9935665,0,0,12985,1623.125
1764838528.9975574,0,0,23735,2966.875
1764838529.0015707,0,0,23911,2988.875
1764838529.005576,0,0,17537,2192.125
1764838529.0095725,0,0,13089,1636.125
1764838529.0135772,0,0,12937,1617.125
1764838529.0175724,0,0,23188,2898.500
1764838529.0215757,0,0,23721,2965.125
1764838529.0255759,0,0,17436,2179.500
1764838529.0295753,0,0,13068,1633.500
1764838529.0335743,0,0,12806,1600.750
1764838529.037584,0,0,23066,2883.250
1764838529.041572,0,0,23988,2998.500
1764838529.0455744,0,0,17717,2214.625
1764838529.0495732,0,0,13171,1646.375
1764838529.053646,1,0,12772,1596.500
1764838529.0575762,0,0,23367,2920.875
1764838529.06156,0,0,24507,3063.375
1764838529.065563,0,0,18379,2297.375
1764838529.0695636,0,0,13469,1683.625
1764838529.0735726,0,0,12576,1572.000
1764838529.0775726,0,0,22010,2751.250
1764838529.0815723,0,0,23809,2976.125
1764838529.0855637,0,0,17837,2229.625
1764838529.0895607,0,0,13295,1661.875
1764838529.0935724,0,0,12619,1577.375
1764838529.097567,0,0,22474,2809.250
1764838529.101572,0,0,24381,3047.625
1764838529.1055732,0,0,18269,2283.625
1764838529.1095724,0,0,13398,1674.750
1764838529.1135726,0,0,12487,1560.875
1764838529.1175678,0,0,22551,2818.875
1764838529.1215637,0,0,24747,3093.375
1764838529.1255598,0,0,18844,2355.500
1764838529.1295629,0,0,13680,1710.000
1764838529.1335697,0,0,12385,1548.125
1764838529.137603,0,0,21519,2689.875
1764838529.141571,0,0,24429,3053.625
1764838529.1455755,0,0,18510,2313.750
1764838529.1495702,0,0,13534,1691.750
1764838529.1535664,0,0,12315,1539.375
1764838529.1575549,0,0,21465,2683.125
1764838529.1615658,0,0,24797,3099.625
1764838529.1655686,0,0,19019,2377.375
1764838529.1695712,0,0,13760,1720.000
1764838529.1735833,0,0,12260,1532.500
1764838529.1775765,0,0,20705,2588.125
1764838529.18157,0,0,24608,3076.000
1764838529.185562,0,0,18922,2365.250
1764838529.1895597,0,0,13739,1717.375
1764838529.1935704,0,0,12276,1534.500
1764838529.1975667,0,0,20824,2603.000
1764838529.2015657,0,0,24895,3111.875
1764838529.2055588,0,0,19286,2410.750
1764838529.2095585,0,0,13890,1736.250
1764838529.213572,1,1,12207,1525.875
1764838529.2175694,0,0,20604,2575.500
1764838529.2215707,0,0,25104,3138.000
1764838529.2255714,0,0,19722,2465.250
1764838529.2295716,0,0,14129,1766.125
1764838529.2335715,1,0,12223,1527.875
1764838529.2375808,0,0,20230,2528.750
1764838529.2416284,0,0,25198,3149.750
1764838529.2459214,0,0,19978,2497.250
1764838529.2496474,0,0,14275,1784.375
1764838529.2536747,0,0,12221,1527.625
1764838529.2575886,0,0,20149,2518.625
1764838529.261573,0,0,25387,3173.375
1764838529.265572,0,0,20516,2564.500
1764838529.269572,0,0,14609,1826.125
1764838529.273573,1,1,12255,1531.875
1764838529.277569,0,0,19506,2438.250
1764838529.2815666,0,0,25259,3157.375
1764838529.2855685,0,0,20253,2531.625
1764838529.2895708,0,0,14424,1803.000
1764838529.2935743,0,0,12159,1519.875
1764838529.2975693,0,0,18678,2334.750
1764838529.3015785,0,0,25147,3143.375
1764838529.3055878,0,0,20289,2536.125
1764838529.309789,0,0,14472,1809.000
1764838529.313654,1,1,12174,1521.750
1764838529.3175673,0,0,18448,2306.000
1764838529.3215723,0,0,25167,3145.875
1764838529.3255706,0,0,20440,2555.000
1764838529.329573,0,0,14556,1819.500
1764838529.3335698,1,0,12154,1519.250
1764838529.3375597,0,0,17899,2237.375
1764838529.341575,0,0,24536,3067.000
1764838529.3455703,0,0,20061,2507.625
1764838529.3495667,0,0,14451,1806.375
1764838529.35357,0,0,12198,1524.750
1764838529.3575656,0,0,18092,2261.500
1764838529.3615644,0,0,25344,3168.000
1764838529.365567,0,0,20904,2613.000
1764838529.369568,0,0,14821,1852.625
1764838529.3735888,1,0,12186,1523.250
1764838529.3775828,0,0,17725,2215.625
1764838529.3815644,0,0,25395,3174.375
1764838529.3855548,0,0,21200,2650.000
1764838529.3895533,0,0,15018,1877.250
1764838529.3935697,1,1,12227,1528.375
1764838529.3975666,0,0,17320,2165.000
1764838529.4015617,0,0,25361,3170.125
1764838529.4055552,0,0,21356,2669.500
1764838529.4095552,0,0,15135,1891.875
1764838529.4135685,1,0,12271,1533.875
1764838529.4175682,0,0,15497,1937.125
1764838529.4215705,0,0,22837,2854.625
1764838529.4255676,0,0,19867,2483.375
1764838529.4295678,0,0,14790,1848.750
1764838529.4335682,0,1,12482,1560.250
1764838529.4375665,0,0,16666,2083.250
1764838529.4416041,0,0,24976,3122.000
1764838529.4455693,0,0,21294,2661.750
1764838529.449567,0,0,15136,1892.000
1764838529.453652,1,1,12271,1533.875
1764838529.457585,0,0,16230,2028.750
1764838529.461565,0,0,24935,3116.875
1764838529.4655545,0,0,21461,2682.625
1764838529.4695542,0,0,15260,1907.500
1764838529.4735637,1,0,12312,1539.000
1764838529.477567,0,0,15578,1947.250
1764838529.481565,0,0,24546,3068.250
1764838529.485555,0,0,21516,2689.500
1764838529.4895542,0,0,15402,1925.250
1764838529.4935694,1,0,12394,1549.250
1764838529.4975665,0,0,15668,1958.500
1764838529.5015695,0,0,25192,3149.000
1764838529.5055707,0,0,22295,2786.875
1764838529.509565,0,0,15840,1980.000
1764838529.513562,0,1,12453,1556.625
1764838529.5175629,0,0,15443,1930.375
1764838529.5215747,0,0,25222,3152.750
1764838529.5255702,0,0,22585,2823.125
1764838529.5295646,0,0,16089,2011.125
1764838529.5335698,0,1,12541,1567.625
1764838529.537566,0,0,14804,1850.500
1764838529.5415804,0,0,24259,3032.375
1764838529.5455668,0,0,21928,2741.000
1764838529.5495665,0,0,15764,1970.500
1764838529.553556,1,1,12518,1564.750
1764838529.5575545,0,0,14705,1838.125
1764838529.561559,0,0,24511,3063.875
1764838529.5655673,0,0,22350,2793.750
1764838529.5695672,0,0,15999,1999.875
1764838529.5735672,1,1,12547,1568.375
1764838529.577564,0,0,14495,1811.875
1764838529.5815625,0,0,24668,3083.500
1764838529.5855694,0,0,22758,2844.750
1764838529.5895643,0,0,16283,2035.375
1764838529.5935624,1,1,12620,1577.500
1764838529.5975707,0,0,14199,1774.875
1764838529.6015632,0,0,24335,3041.875
1764838529.605554,0,0,22676,2834.500
1764838529.6095512,0,0,16281,2035.125
1764838529.6135623,1,1,12641,1580.125
1764838529.61756,0,0,13883,1735.375
1764838529.6215627,0,0,23979,2997.375
1764838529.6255531,0,0,22743,2842.875
1764838529.6295536,0,0,16429,2053.625
1764838529.6335602,1,1,12718,1589.750
1764838529.6375525,0,0,13819,1727.375
1764838529.6415956,0,0,24246,3030.750
1764838529.6455674,0,0,23179,2897.375
1764838529.6495683,0,0,16718,2089.750
1764838529.6589746,0,0,24742,3092.750
1764838529.661595,0,0,24742,3092.750
1764838529.665575,0,0,23933,2991.625
1764838529.66957,0,0,17494,2186.750
1764838529.6735542,1,1,13082,1635.250
1764838529.677551,0,0,13351,1668.875
1764838529.6815636,0,0,24042,3005.250
1764838529.685569,0,0,23726,2965.750
1764838529.6895678,0,0,17288,2161.000
1764838529.6935647,1,1,12980,1622.500
1764838529.6975522,0,0,13190,1648.750
1764838529.7015617,0,0,24088,3011.000
1764838529.705568,0,0,24088,3011.000
1764838529.709567,0,0,17734,2216.750
1764838529.713563,1,1,13187,1648.375
1764838529.7175596,0,0,12935,1616.875
1764838529.7215614,0,0,23084,2885.500
1764838529.7255654,0,0,23521,2940.125
1764838529.729565,0,0,17284,2160.500
1764838529.7335677,1,1,13029,1628.625
1764838529.7375612,0,0,12902,1612.750
1764838529.7415593,0,0,23067,2883.375
1764838529.7456028,0,0,23803,2975.375
1764838529.7495754,0,0,17523,2190.375
1764838529.7535603,1,1,13101,1637.625
1764838529.75755,0,0,12800,1600.000
1764838529.7615602,0,0,23188,2898.500
1764838529.7655618,0,0,24219,3027.375
1764838529.7695644,0,0,17965,2245.625
1764838529.7735598,1,1,13266,1658.250
1764838529.7775488,0,0,12724,1590.500
1764838529.7815602,0,0,23260,2907.500
1764838529.785567,0,0,24684,3085.500
1764838529.789565,0,0,18685,2335.625
1764838529.7935624,1,1,13621,1702.625
1764838529.7975595,0,0,12604,1575.500
1764838529.8015552,0,0,22805,2850.625
1764838529.8055513,0,0,24664,3083.000
1764838529.809552,0,0,18671,2333.875
1764838529.8135638,1,1,13603,1700.375
1764838529.8175614,0,0,12408,1551.000
1764838529.821562,0,0,21374,2671.750
1764838529.8255608,0,0,23930,2991.250
1764838529.8295643,0,0,18114,2264.250
1764838529.8335614,1,1,13438,1679.750
1764838529.8375573,0,0,12482,1560.250
1764838529.8415575,0,0,22074,2759.250
1764838529.8455756,0,0,24772,3096.500
1764838529.8495674,0,0,18906,2363.250
1764838529.8535666,1,1,13708,1713.500
1764838529.8576636,0,0,12345,1543.125
1764838529.8615713,0,0,20538,2567.250
1764838529.86555,0,0,23555,2944.375
1764838529.8695502,0,0,18110,2263.750
1764838529.8735638,1,1,13523,1690.375
1764838529.877561,0,0,12449,1556.125
1764838529.8815596,0,0,21459,2682.375
1764838529.8855476,0,0,24901,3112.625
1764838529.8895476,0,0,19201,2400.125
1764838529.8935661,1,1,13849,1731.125
1764838529.8975627,0,0,12302,1537.750
1764838529.9015625,0,0,21032,2629.000
1764838529.9055593,0,0,25005,3125.625
1764838529.9095643,0,0,19447,2430.875
1764838529.9135656,1,1,12246,1530.750
1764838529.9175613,0,0,20505,2563.125
1764838529.9215558,0,0,25014,3126.750
1764838529.9255583,0,0,19542,2442.750
1764838529.9295652,0,0,14025,1753.125
1764838529.9335601,1,1,12233,1529.125
1764838529.9375472,0,0,20577,2572.125
1764838529.9415545,0,0,25198,3149.750
1764838529.94556,0,0,19934,2491.750
1764838529.9495764,0,0,14244,1780.500
1764838529.9535656,1,1,12183,1522.875
1764838529.957559,0,0,19317,2414.625
1764838529.9615543,0,0,24929,3116.125
1764838529.9655576,0,0,19730,2466.250
1764838529.9695609,0,0,14160,1770.000
1764838529.9735627,1,1,12180,1522.500
1764838529.9775562,0,0,19271,2408.875
1764838529.9815576,0,0,25064,3133.000
1764838529.9855618,0,0,19950,2493.750
1764838529.9895587,0,0,14260,1782.500
1764838529.9935613,1,1,12156,1519.500
1764838529.9975626,0,0,19395,2424.375
1764838530.0015595,0,0,25348,3168.500
1764838530.005546,0,0,20485,2560.625
1764838530.0095465,0,0,14567,1820.875
1764838530.013546,1,1,12185,1523.125
1764838530.0175474,0,0,19152,2394.000
1764838530.0215564,0,0,25448,3181.000
1764838530.0255468,0,0,20833,2604.125
1764838530.0295436,0,0,14778,1847.250
1764838530.0335634,1,1,12194,1524.250
1764838530.0375593,0,0,18358,2294.750
1764838530.0415628,0,0,25326,3165.750
1764838530.0455601,0,0,20746,2593.250
1764838530.0495744,0,0,14730,1841.250
1764838530.0535562,1,1,12176,1522.000
1764838530.057634,0,0,17470,2183.750
1764838530.0615623,0,0,24557,3069.625
1764838530.06555,0,0,20277,2534.625
1764838530.0695465,0,0,14578,1822.250
