Timestamp,LO_plus,LO_minus,Raw_ADC,Voltage_mV
1764842188.5994039,0,0,-2164,-270.500
1764842188.6012185,0,0,-2164,-270.500
1764842188.602922,0,0,-2040,-255.000
1764842188.6055334,0,0,-2040,-255.000
1764842188.6095376,1,1,5051,631.375
1764842188.6135497,0,0,370,46.250
1764842188.6175392,0,0,-2181,-272.625
1764842188.6215477,0,0,-2127,-265.875
1764842188.6255548,0,0,802,100.250
1764842188.6295452,1,1,4915,614.375
1764842188.6335337,0,0,543,67.875
1764842188.6375353,0,0,-2147,-268.375
1764842188.641532,0,0,-2047,-255.875
1764842188.6455796,0,0,1108,138.500
1764842188.6495445,1,1,5294,661.750
1764842188.6535344,0,0,877,109.625
1764842188.6575422,0,0,-2083,-260.375
1764842188.6615872,0,0,-2212,-276.500
1764842188.6655507,0,0,407,50.875
1764842188.6695411,1,1,4800,600.000
1764842188.6735337,0,0,906,113.250
1764842188.6775432,0,0,-2068,-258.500
1764842188.6815956,0,0,-2230,-278.750
1764842188.68555,0,0,297,37.125
1764842188.68954,1,1,4794,599.250
1764842188.6935332,0,0,1137,142.125
1764842188.6975443,0,0,-2006,-250.750
1764842188.7015398,0,0,-2259,-282.375
1764842188.7055404,0,0,123,15.375
1764842188.7095392,1,1,4704,588.000
1764842188.713585,0,0,1373,171.625
1764842188.7175536,0,0,-1938,-242.250
1764842188.7215328,0,0,-2294,-286.750
1764842188.7255304,0,0,-141,-17.625
1764842188.7295437,1,1,4499,562.375
1764842188.7335873,0,0,1551,193.875
1764842188.737552,0,0,-1881,-235.125
1764842188.7415323,0,0,-2271,-283.875
1764842188.7455304,0,0,25,3.125
1764842188.7495425,1,1,4719,589.875
1764842188.7535405,0,0,1940,242.500
1764842188.7575397,0,0,-1772,-221.500
1764842188.7615323,0,0,-2319,-289.875
1764842188.7655687,0,0,-404,-50.500
1764842188.7695637,1,1,4292,536.500
1764842188.77354,0,0,2010,251.250
1764842188.7775419,0,0,-1738,-217.250
1764842188.7815409,0,0,-2331,-291.375
1764842188.7855403,0,0,-607,-75.875
1764842188.7895358,1,1,4076,509.500
1764842188.7935839,0,0,2206,275.750
1764842188.797582,0,0,-1662,-207.750
1764842188.8015573,0,0,-2315,-289.375
1764842188.805541,0,0,-465,-58.125
1764842188.8095365,1,1,4251,531.375
1764842188.8135467,0,0,2609,326.125
1764842188.8175397,0,0,-1534,-191.750
1764842188.8215327,0,0,-2333,-291.625
1764842188.8255298,0,0,-885,-110.625
1764842188.829578,1,1,3732,466.500
1764842188.8335624,0,0,2656,332.000
1764842188.8375416,0,0,-1491,-186.375
1764842188.841531,0,0,-2316,-289.500
1764842188.845531,0,0,-683,-85.375
1764842188.8495414,1,1,3981,497.625
1764842188.85354,0,0,3094,386.750
1764842188.8575368,0,0,-1343,-167.875
1764842188.8615656,0,0,-2325,-290.625
1764842188.8655596,0,0,-1137,-142.125
1764842188.8695407,1,1,3357,419.625
1764842188.8735309,0,0,3054,381.750
1764842188.8775394,0,0,-1318,-164.750
1764842188.8815382,0,0,-2318,-289.750
1764842188.8855398,0,0,-1136,-142.000
1764842188.8895366,1,1,3344,418.000
1764842188.89359,0,0,3321,415.125
1764842188.8975482,0,0,-1205,-150.625
1764842188.9015357,0,0,-2310,-288.750
1764842188.9055383,0,0,-1584,-198.000
1764842188.9095366,1,1,2601,325.125
1764842188.9135294,0,0,3104,388.000
1764842188.917544,0,0,-1227,-153.375
1764842188.9215298,0,0,-2306,-288.250
1764842188.9255285,0,0,-2014,-251.750
1764842188.9295413,1,1,1561,195.125
1764842188.9335399,0,0,2750,343.750
1764842188.9375796,0,0,-1252,-156.500
1764842188.9415438,0,0,-2295,-286.875
1764842188.9455352,0,0,-1615,-201.875
1764842188.9495404,1,1,2454,306.750
1764842188.9535387,0,0,3700,462.500
1764842188.9575856,0,0,-884,-110.500
1764842188.9615357,0,0,-2239,-279.875
1764842188.9655282,0,0,-1770,-221.250
1764842188.9695365,1,1,2080,260.000
1764842188.9735816,0,0,3720,465.000
1764842188.9801948,0,0,-2221,-277.625
1764842188.9820185,0,0,-2221,-277.625
1764842188.985533,0,0,-1873,-234.125
1764842188.9895325,1,1,1792,224.000
1764842188.9935799,0,0,3789,473.625
1764842188.9975457,0,0,-707,-88.375
1764842189.0015295,0,0,-2186,-273.250
1764842189.0055258,0,0,-1374,-171.750
1764842189.0095298,1,1,2759,344.875
1764842189.013573,0,0,4747,593.375
1764842189.0175395,0,0,-321,-40.125
1764842189.0215287,0,0,-2120,-265.000
1764842189.0255253,0,0,-1982,-247.750
1764842189.0295374,1,1,1400,175.000
1764842189.033584,0,0,3975,496.875
1764842189.037701,0,0,-502,-62.750
1764842189.0415306,0,0,-2146,-268.250
1764842189.0455265,0,0,-1889,-236.125
1764842189.04953,1,1,1628,203.500
1764842189.0535257,0,0,4402,550.250
1764842189.0575254,0,0,-261,-32.625
1764842189.0615256,0,0,-2091,-261.375
1764842189.0655684,0,0,-2119,-264.875
1764842189.0695388,1,1,854,106.750
1764842189.0735278,0,0,3989,498.625
1764842189.077537,0,0,-296,-37.000
1764842189.081585,0,0,-2085,-260.625
1764842189.085549,0,0,-2145,-268.125
1764842189.089537,1,1,695,86.875
1764842189.0935261,0,0,4055,506.875
1764842189.0975375,0,0,-157,-19.625
1764842189.101537,0,0,-2041,-255.125
1764842189.1055346,0,0,-2176,-272.000
1764842189.1095335,1,1,478,59.750
1764842189.1135263,0,0,4064,508.000
1764842189.1175373,0,0,-15,-1.875
1764842189.1215367,0,0,-1990,-248.750
1764842189.1255565,0,0,-2164,-270.500
1764842189.1295836,1,1,444,55.500
1764842189.1336625,0,0,4209,526.125
1764842189.1376212,0,0,166,20.750
1764842189.1416163,0,0,-1934,-241.750
1764842189.1456137,0,0,-2216,-277.000
1764842189.1496081,1,1,54,6.750
1764842189.1536438,0,0,3986,498.250
1764842189.1576068,0,0,224,28.000
1764842189.161597,0,0,-1903,-237.875
1764842189.1655996,0,0,-2139,-267.375
1764842189.1696155,1,1,396,49.500
1764842189.1736646,0,0,4511,563.875
1764842189.1776185,0,0,605,75.625
1764842189.1815984,0,0,-1795,-224.375
1764842189.1855953,0,0,-2153,-269.125
1764842189.1896145,1,1,201,25.125
1764842189.1936758,0,0,4453,556.625
1764842189.1976213,0,0,749,93.625
1764842189.2016432,0,0,-1751,-218.875
1764842189.2056231,0,0,-2203,-275.375
1764842189.2096133,1,1,-218,-27.250
1764842189.2136118,0,0,4105,513.125
1764842189.217614,0,0,737,92.125
1764842189.2216158,0,0,-2269,-283.625
1764842189.225611,0,0,-1397,-174.625
1764842189.2296054,1,1,2548,318.500
1764842189.2337093,0,0,203,25.375
1764842189.2376902,0,0,-1850,-231.250
1764842189.2417338,0,0,-2263,-282.875
1764842189.245697,0,0,-1374,-171.750
1764842189.249688,1,1,2696,337.000
1764842189.2536843,0,0,525,65.625
1764842189.2576897,0,0,-1729,-216.125
1764842189.2617226,0,0,-2212,-276.500
1764842189.2657092,0,0,-925,-115.625
1764842189.269682,1,1,3470,433.750
1764842189.27367,0,0,1098,137.250
1764842189.2776902,0,0,-1549,-193.625
1764842189.2816882,0,0,-2190,-273.750
1764842189.2856905,0,0,-1551,-193.875
1764842189.2897213,1,1,2435,304.375
1764842189.2936747,0,0,781,97.625
1764842189.2976692,0,0,-1609,-201.125
1764842189.3016686,0,0,-2179,-272.375
1764842189.3056686,0,0,-1478,-184.750
1764842189.3096895,1,1,2628,328.500
1764842189.3136861,0,0,1154,144.250
1764842189.317787,0,0,-1474,-184.250
1764842189.3216996,0,0,-2138,-267.250
1764842189.3256896,0,0,-1503,-187.875
1764842189.3296776,1,1,2574,321.750
1764842189.3337421,0,0,1414,176.750
1764842189.337645,0,0,-1374,-171.750
1764842189.3416486,0,0,-2097,-262.125
1764842189.345644,0,0,-1157,-144.625
1764842189.3497002,1,1,3218,402.250
1764842189.3536494,0,0,2122,265.250
1764842189.3576438,0,0,-1152,-144.000
1764842189.3616414,0,0,-2044,-255.500
1764842189.3656425,0,0,-1160,-145.000
1764842189.3696456,1,1,3196,399.500
1764842189.3736916,0,0,2347,293.375
1764842189.377672,0,0,-1077,-134.625
1764842189.3816295,0,0,-2029,-253.625
1764842189.3856266,0,0,-1325,-165.625
1764842189.3896472,1,1,2895,361.875
1764842189.393711,0,0,2426,303.250
1764842189.3976903,0,0,-1042,-130.250
1764842189.401657,0,0,-2020,-252.500
1764842189.4056437,0,0,-1489,-186.125
1764842189.4096441,1,1,2560,320.000
1764842189.41364,0,0,2508,313.500
1764842189.417646,0,0,-998,-124.750
1764842189.4217134,0,0,-2005,-250.625
1764842189.4256725,0,0,-1665,-208.125
1764842189.4296405,1,1,2147,268.375
1764842189.4336615,0,0,2496,312.000
1764842189.4376414,0,0,-977,-122.125
1764842189.4416404,0,0,-1992,-249.000
1764842189.445643,0,0,-1907,-238.375
1764842189.4496357,1,1,1424,178.000
1764842189.4536247,0,0,2257,282.125
1764842189.4576433,0,0,-1013,-126.625
1764842189.46164,0,0,-1983,-247.875
1764842189.4656699,0,0,-1909,-238.625
1764842189.4696577,1,1,1347,168.375
1764842189.4736261,0,0,2485,310.625
1764842189.4776433,0,0,-898,-112.250
1764842189.4816382,0,0,-1939,-242.375
1764842189.4856358,0,0,-1903,-237.875
1764842189.4896328,1,1,1293,161.625
1764842189.4936237,0,0,2715,339.375
1764842189.4976394,0,0,-782,-97.750
1764842189.501641,0,0,-1896,-237.000
1764842189.5056374,0,0,-1928,-241.000
1764842189.5096414,1,1,1099,137.375
1764842189.5136425,0,0,2830,353.750
1764842189.5176785,0,0,-695,-86.875
1764842189.5216563,0,0,-1861,-232.625
1764842189.525639,0,0,-2011,-251.375
1764842189.5296345,1,1,615,76.875
1764842189.5336602,0,0,2656,332.000
1764842189.5376298,0,0,-695,-86.875
1764842189.5416696,0,0,-1843,-230.375
1764842189.5456288,0,0,-1980,-247.500
1764842189.5496256,1,1,680,85.000
1764842189.5536234,0,0,2984,373.000
1764842189.557647,0,0,-518,-64.750
1764842189.561642,0,0,-1781,-222.625
1764842189.5656397,0,0,-1912,-239.000
1764842189.5696316,1,1,861,107.625
1764842189.5736225,0,0,3402,425.250
1764842189.577639,0,0,-310,-38.750
1764842189.5816443,0,0,-1717,-214.625
1764842189.5856886,0,0,-1912,-239.000
1764842189.5896416,1,1,740,92.500
1764842189.5992966,0,0,-1684,-210.500
1764842189.6016872,0,0,-1684,-210.500
1764842189.6056333,0,0,-1921,-240.125
1764842189.609625,1,1,602,75.250
1764842189.6136289,0,0,3611,451.375
1764842189.617627,0,0,-92,-11.500
1764842189.6216252,0,0,-1647,-205.875
1764842189.6256213,0,0,-1968,-246.000
1764842189.6296246,1,1,226,28.250
1764842189.6336207,0,0,3431,428.875
1764842189.6376846,0,0,-74,-9.250
1764842189.6416545,0,0,-1635,-204.375
1764842189.6456246,0,0,-1978,-247.250
1764842189.6496255,1,1,65,8.125
1764842189.6536202,0,0,3399,424.875
1764842189.6576364,0,0,-28,-3.500
1764842189.661705,0,0,-1614,-201.750
1764842189.6656482,0,0,-2020,-252.500
1764842189.6696324,1,1,-1100,-137.500
1764842189.6736193,0,0,1875,234.375
1764842189.6776376,0,0,-510,-63.750
1764842189.6816363,0,0,-1719,-214.875
1764842189.6856935,0,0,-2000,-250.000
1764842189.6896434,1,1,-367,-45.875
1764842189.6936224,0,0,3318,414.750
1764842189.6976361,0,0,227,28.375
1764842189.7016358,0,0,-1495,-186.875
1764842189.7056375,0,0,-1915,-239.375
1764842189.7096303,1,1,-179,-22.375
1764842189.7136831,0,0,3714,464.250
1764842189.7176375,0,0,510,63.750
1764842189.7216191,0,0,-1410,-176.250
1764842189.7256198,0,0,-1878,-234.750
1764842189.7296412,1,1,-83,-10.375
1764842189.7336369,0,0,3979,497.375
1764842189.7376294,0,0,750,93.750
1764842189.7416875,0,0,-1343,-167.875
1764842189.7456417,0,0,-1915,-239.375
1764842189.7496326,1,1,-796,-99.500
1764842189.7536216,0,0,3137,392.125
1764842189.7576902,0,0,516,64.500
1764842189.761643,0,0,-1404,-175.500
1764842189.7656326,0,0,-1924,-240.500
1764842189.76964,1,1,-963,-120.375
1764842189.77364,0,0,2973,371.625
1764842189.7776346,0,0,585,73.125
1764842189.7816172,0,0,-1372,-171.500
1764842189.7856166,0,0,-1906,-238.250
1764842189.7896228,1,1,-1024,-128.000
1764842189.7936242,0,0,2974,371.750
1764842189.7977223,0,0,759,94.875
1764842189.8016376,0,0,-1309,-163.625
1764842189.8056178,0,0,-1877,-234.625
1764842189.8096392,1,1,-887,-110.875
1764842189.8136966,0,0,3295,411.875
1764842189.8176465,0,0,1102,137.750
1764842189.8216238,0,0,-1204,-150.500
1764842189.8256173,0,0,-1850,-231.250
1764842189.8296397,1,1,-1166,-145.750
1764842189.8336368,0,0,2858,357.250
1764842189.8376648,0,0,1066,133.250
1764842189.8416214,0,0,-1844,-230.500
1764842189.845619,0,0,-1318,-164.750
1764842189.8496394,1,1,2581,322.625
1764842189.8536332,0,0,1116,139.500
1764842189.8576365,0,0,-1181,-147.625
1764842189.8616557,0,0,-1827,-228.375
1764842189.8656793,0,0,-1395,-174.375
1764842189.869635,1,1,2426,303.250
1764842189.8736176,0,0,1249,156.125
1764842189.8776348,0,0,-1131,-141.375
1764842189.8816347,0,0,-1804,-225.500
1764842189.8856359,0,0,-1425,-178.125
1764842189.8896275,1,1,2375,296.875
1764842189.893615,0,0,1476,184.500
1764842189.8976364,0,0,-1052,-131.500
1764842189.9016373,0,0,-1775,-221.875
1764842189.9056394,0,0,-1412,-176.500
1764842189.909699,1,1,2424,303.000
1764842189.9136434,0,0,1766,220.750
1764842189.9176383,0,0,-957,-119.625
1764842189.9216237,0,0,-1744,-218.000
1764842189.9256203,0,0,-1465,-183.125
1764842189.929639,1,1,2274,284.250
1764842189.9336867,0,0,1933,241.625
1764842189.937641,0,0,-897,-112.125
1764842189.9416578,0,0,-1723,-215.375
1764842189.9456203,0,0,-1484,-185.500
1764842189.949625,1,1,2201,275.125
1764842189.953624,0,0,2162,270.250
1764842189.9576216,0,0,-817,-102.125
1764842189.9616168,0,0,-1698,-212.250
1764842189.9656205,0,0,-1460,-182.500
1764842189.9696374,1,1,2245,280.625
1764842189.9736362,0,0,2469,308.625
1764842189.9777746,0,0,-713,-89.125
1764842189.9819689,0,0,-1670,-208.750
1764842189.985694,0,0,-1587,-198.375
1764842189.9896486,1,1,1845,230.625
1764842189.9936416,0,0,2451,306.375
1764842189.997729,0,0,-702,-87.750
1764842190.0016475,0,0,-1665,-208.125
1764842190.0056343,0,0,-1686,-210.750
1764842190.0096397,1,1,1435,179.375
1764842190.0136433,0,0,2391,298.875
1764842190.0176294,0,0,-698,-87.250
1764842190.0216181,0,0,-1657,-207.125
1764842190.025617,0,0,-1680,-210.000
1764842190.0296335,1,1,1440,180.000
1764842190.0336905,0,0,2696,337.000
1764842190.037639,0,0,-572,-71.500
1764842190.0416212,0,0,-1618,-202.250
1764842190.0456178,0,0,-1488,-186.000
1764842190.0496397,1,1,1987,248.375
1764842190.0536914,0,0,3408,426.000
1764842190.0576408,0,0,-320,-40.000
1764842190.0616157,0,0,-1555,-194.375
1764842190.0656133,0,0,-1720,-215.000
1764842190.0696383,1,1,1123,140.375
1764842190.073635,0,0,2948,368.500
1764842190.0776289,0,0,-436,-54.500
1764842190.0816176,0,0,-1587,-198.375
1764842190.085614,0,0,-1749,-218.625
1764842190.0896356,1,1,982,122.750
1764842190.0936291,0,0,3076,384.500
1764842190.0976827,0,0,-351,-43.875
1764842190.1016474,0,0,-1560,-195.000
1764842190.1056318,0,0,-1778,-222.250
1764842190.1096232,1,1,753,94.125
1764842190.1136148,0,0,3116,389.500
1764842190.117633,0,0,-286,-35.750
1764842190.1216533,0,0,-1538,-192.250
1764842190.1256633,0,0,-1827,-228.375
1764842190.129632,1,1,251,31.375
1764842190.1336288,0,0,2785,348.125
1764842190.137645,0,0,-347,-43.375
1764842190.1416683,0,0,-1547,-193.375
1764842190.1456337,0,0,-1807,-225.875
1764842190.1496346,1,1,396,49.500
1764842190.153681,0,0,3199,399.875
1764842190.1576416,0,0,-133,-16.625
1764842190.161617,0,0,-1480,-185.000
1764842190.1656146,0,0,-1795,-224.375
1764842190.16963,1,1,297,37.125
1764842190.1736615,0,0,3318,414.750
1764842190.1776257,0,0,-18,-2.250
1764842190.1816175,0,0,-1444,-180.500
1764842190.1856155,0,0,-1810,-226.250
1764842190.1896365,1,1,-30,-3.750
1764842190.1936293,0,0,3114,389.250
1764842190.197693,0,0,-23,-2.875
1764842190.201622,0,0,-1439,-179.875
1764842190.2056174,0,0,-1817,-227.125
1764842190.2096303,1,1,-314,-39.250
1764842190.2136927,0,0,2915,364.375
1764842190.2176573,0,0,-18,-2.250
1764842190.2216167,0,0,-1428,-178.500
1764842190.2256148,0,0,-1810,-226.250
1764842190.229635,1,1,-468,-58.500
1764842190.2336295,0,0,2870,358.750
1764842190.237626,0,0,56,7.000
1764842190.2416453,0,0,-1397,-174.625
1764842190.2456567,0,0,-1796,-224.500
1764842190.249655,1,1,-657,-82.125
1764842190.253631,0,0,2732,341.500
1764842190.257629,0,0,97,12.125
1764842190.2616313,0,0,-1372,-171.500
1764842190.2656312,0,0,-1779,-222.375
1764842190.2696223,1,1,-772,-96.500
1764842190.273613,0,0,2688,336.000
1764842190.2776294,0,0,186,23.250
1764842190.28163,0,0,-1334,-166.750
1764842190.2856276,0,0,-1758,-219.750
1764842190.2896216,1,1,-873,-109.125
1764842190.293614,0,0,2648,331.000
1764842190.2976308,0,0,285,35.625
1764842190.301632,0,0,-1293,-161.625
1764842190.3056338,0,0,-1737,-217.125
1764842190.309625,1,1,-988,-123.500
1764842190.3136158,0,0,2536,317.000
1764842190.317633,0,0,355,44.375
1764842190.3216302,0,0,-1261,-157.625
1764842190.3256297,0,0,-1716,-214.500
1764842190.3296208,1,1,-1211,-151.375
1764842190.333614,0,0,2104,263.000
1764842190.3376307,0,0,272,34.000
1764842190.341665,0,0,-1268,-158.500
1764842190.345631,0,0,-1703,-212.875
1764842190.3496299,1,1,-1232,-154.000
1764842190.3536284,0,0,2147,268.375
1764842190.3576355,0,0,431,53.875
1764842190.3616302,0,0,-1205,-150.625
1764842190.3656268,0,0,-1670,-208.750
1764842190.3696325,1,1,-1346,-168.250
1764842190.3736308,0,0,1841,230.125
1764842190.377635,0,0,370,46.250
1764842190.3816285,0,0,-1205,-150.625
1764842190.385628,0,0,-1653,-206.625
1764842190.3896332,1,1,-1633,-204.125
1764842190.3936262,0,0,595,74.375
1764842190.3977132,0,0,-191,-23.875
1764842190.4016442,0,0,-1338,-167.250
1764842190.405631,0,0,-1658,-207.250
1764842190.4096217,1,1,-1512,-189.000
1764842190.413612,0,0,1251,156.375
1764842190.4176276,0,0,379,47.375
1764842190.4216347,0,0,-1144,-143.000
1764842190.4256263,0,0,-1581,-197.625
1764842190.4296186,1,1,-1504,-188.000
1764842190.4336097,0,0,1184,148.000
1764842190.437627,0,0,502,62.750
1764842190.4416652,0,0,-1086,-135.750
1764842190.4456327,0,0,-1544,-193.000
1764842190.449632,1,1,-1537,-192.125
1764842190.4536278,0,0,896,112.000
1764842190.4576313,0,0,471,58.875
1764842190.46163,0,0,-1518,-189.750
1764842190.4656293,0,0,-1545,-193.125
1764842190.469633,1,1,707,88.375
1764842190.473632,0,0,509,63.625
1764842190.4776263,0,0,-1038,-129.750
1764842190.4816132,0,0,-1485,-185.625
1764842190.4856124,0,0,-1541,-192.625
1764842190.4896307,1,1,528,66.000
1764842190.4936273,0,0,550,68.750
1764842190.4976227,0,0,-1001,-125.125
1764842190.5016088,0,0,-1451,-181.375
1764842190.5056124,0,0,-1546,-193.250
1764842190.5096347,1,1,106,13.250
1764842190.51363,0,0,361,45.125
1764842190.5176291,0,0,-1028,-128.500
1764842190.521626,0,0,-1431,-178.875
1764842190.5256279,0,0,-1527,-190.875
1764842190.5296347,1,1,-121,-15.125
1764842190.5336263,0,0,314,39.250
1764842190.537621,0,0,-1012,-126.500
1764842190.5416083,0,0,-1398,-174.750
1764842190.5457127,0,0,-1495,-186.875
1764842190.5496817,1,1,-228,-28.500
1764842190.553674,0,0,372,46.500
1764842190.5576725,0,0,-963,-120.375
1764842190.5616667,0,0,-1355,-169.375
1764842190.5656695,0,0,-1459,-182.375
1764842190.5696735,1,1,-568,-71.000
1764842190.5736706,0,0,119,14.875
1764842190.5776734,0,0,-1005,-125.625
1764842190.58167,0,0,-1335,-166.875
1764842190.585667,0,0,-1421,-177.625
1764842190.589657,1,1,-680,-85.000
1764842190.5936491,0,0,107,13.375
1764842190.6042209,0,0,-1293,-161.625
1764842190.606174,0,0,-1378,-172.250
1764842190.6096604,1,1,-960,-120.000
1764842190.613657,0,0,-245,-30.625
1764842190.6176734,0,0,-1041,-130.125
1764842190.621672,0,0,-1276,-159.500
1764842190.6256707,0,0,-1336,-167.000
1764842190.6296613,1,1,-973,-121.625
1764842190.633653,0,0,-181,-22.625
1764842190.6376753,0,0,-979,-122.375
1764842190.6416712,0,0,-1222,-152.750
1764842190.6457596,0,0,-1285,-160.625
1764842190.6496286,1,1,-998,-124.750
1764842190.6536274,0,0,-173,-21.625
1764842190.6576295,0,0,-935,-116.875
1764842190.6616251,0,0,-1175,-146.875
1764842190.6656225,0,0,-1237,-154.625
1764842190.6696255,1,1,-1019,-127.375
1764842190.6736226,0,0,-186,-23.250
1764842190.6776319,0,0,-898,-112.250
1764842190.6816258,0,0,-1130,-141.250
1764842190.6856258,0,0,-1190,-148.750
1764842190.689629,1,1,-1008,-126.000
1764842190.6936238,0,0,-131,-16.375
1764842190.69763,0,0,-838,-104.750
1764842190.7016232,0,0,-1080,-135.000
1764842190.705626,0,0,-1143,-142.875
1764842190.7096283,1,1,-1049,-131.125
1764842190.7136219,0,0,-308,-38.500
1764842190.7176208,0,0,-857,-107.125
1764842190.7216098,0,0,-1052,-131.500
1764842190.7256076,0,0,-1103,-137.875
1764842190.7296252,1,1,-1025,-128.125
1764842190.7336235,0,0,-262,-32.750
1764842190.7376175,0,0,-800,-100.000
1764842190.741607,0,0,-1003,-125.375
1764842190.7456393,0,0,-1057,-132.125
1764842190.7496305,1,1,-1017,-127.125
1764842190.753624,0,0,-344,-43.000
1764842190.757629,0,0,-789,-98.625
1764842190.7616246,0,0,-968,-121.000
1764842190.7656248,0,0,-1015,-126.875
1764842190.7696297,1,1,-998,-124.750
1764842190.7736237,0,0,-435,-54.375
1764842190.777627,0,0,-783,-97.875
1764842190.7816224,0,0,-936,-117.000
1764842190.785624,0,0,-974,-121.750
1764842190.7896163,1,1,-965,-120.625
1764842190.7936094,0,0,-434,-54.250
1764842190.7976232,0,0,-744,-93.000
1764842190.8016896,0,0,-894,-111.750
1764842190.8056378,0,0,-932,-116.500
1764842190.8096259,1,1,-932,-116.500
1764842190.8136098,0,0,-505,-63.125
1764842190.817623,0,0,-735,-91.875
1764842190.821624,0,0,-861,-107.625
1764842190.8256207,0,0,-893,-111.625
1764842190.8296168,1,1,-894,-111.750
1764842190.8336086,0,0,-575,-71.875
1764842190.8376133,0,0,-732,-91.500
1764842190.841606,0,0,-831,-103.875
1764842190.8456035,0,0,-855,-106.875
1764842190.8496234,1,1,-854,-106.750
1764842190.8536255,0,0,-528,-66.000
1764842190.8576276,0,0,-677,-84.625
1764842190.8616202,0,0,-786,-98.250
1764842190.8656204,0,0,-814,-101.750
1764842190.869625,1,1,-814,-101.750
1764842190.8736236,0,0,-441,-55.125
1764842190.8776305,0,0,-601,-75.125
1764842190.8816276,0,0,-738,-92.250
1764842190.8856208,0,0,-774,-96.750
1764842190.8896136,1,1,-777,-97.125
1764842190.8936076,0,0,-516,-64.500
1764842190.897621,0,0,-612,-76.500
1764842190.9016216,0,0,-715,-89.375
1764842190.9056215,0,0,-741,-92.625
1764842190.9096115,1,1,-743,-92.875
1764842190.9136071,0,0,-530,-66.250
1764842190.9176245,0,0,-594,-74.250
1764842190.92163,0,0,-685,-85.625
1764842190.9256232,0,0,-708,-88.500
1764842190.9296286,1,1,-708,-88.500
1764842190.9336216,0,0,-544,-68.000
1764842190.9376266,0,0,-581,-72.625
1764842190.9416232,0,0,-657,-82.125
1764842190.945624,0,0,-676,-84.500
1764842190.9496248,1,1,-675,-84.375
1764842190.9536207,0,0,-588,-73.500
1764842190.9576292,0,0,-597,-74.625
1764842190.9616218,0,0,-638,-79.750
1764842190.9656212,0,0,-646,-80.750
1764842190.9696248,1,1,-643,-80.375
1764842190.9736226,0,0,-549,-68.625
1764842190.9777286,0,0,-553,-69.125
1764842190.9819527,0,0,-602,-75.250
1764842190.985685,0,0,-614,-76.750
1764842190.9896204,1,1,-611,-76.375
1764842190.9936051,0,0,-501,-62.625
1764842190.9976091,0,0,-498,-62.250
1764842191.001671,0,0,-565,-70.625
1764842191.0056214,0,0,-580,-72.500
1764842191.0096302,1,1,-580,-72.500
1764842191.0136175,0,0,-505,-63.125
1764842191.0176232,0,0,-493,-61.625
1764842191.0216224,0,0,-542,-67.750
1764842191.0256214,0,0,-554,-69.250
1764842191.0296144,1,1,-553,-69.125
1764842191.033604,0,0,-492,-61.500
1764842191.0376115,0,0,-474,-59.250
1764842191.0416107,0,0,-517,-64.625
1764842191.0456052,0,0,-527,-65.875
1764842191.0496233,1,1,-525,-65.625
1764842191.0536163,0,0,-467,-58.375
1764842191.0576174,0,0,-441,-55.125
1764842191.0616143,0,0,-488,-61.000
1764842191.0656152,0,0,-500,-62.500
1764842191.069624,1,1,-499,-62.375
1764842191.0736187,0,0,-436,-54.500
1764842191.0776174,0,0,-396,-49.500
1764842191.0816178,0,0,-473,-59.125
1764842191.0856216,0,0,-474,-59.250
1764842191.0896242,1,1,-423,-52.875
1764842191.0936182,0,0,-377,-47.125
1764842191.0976207,0,0,-436,-54.500
1764842191.1016188,0,0,-450,-56.250
1764842191.1056182,0,0,-451,-56.375
1764842191.1096249,1,1,-404,-50.500
1764842191.1136205,0,0,-346,-43.250
1764842191.1176271,0,0,-410,-51.250
1764842191.1216185,0,0,-426,-53.250
1764842191.1256151,0,0,-429,-53.625
1764842191.1296258,1,1,-399,-49.875
1764842191.1336193,0,0,-346,-43.250
1764842191.1376243,0,0,-395,-49.375
1764842191.1416345,0,0,-407,-50.875
1764842191.1456246,0,0,-408,-51.000
1764842191.1497254,1,1,-399,-49.875
1764842191.1536481,0,0,-380,-47.500
1764842191.157664,0,0,-390,-48.750
1764842191.1616657,0,0,-391,-48.875
1764842191.1656597,0,0,-388,-48.500
1764842191.1696513,1,1,-375,-46.875
1764842191.1736424,0,0,-334,-41.750
1764842191.1776657,0,0,-362,-45.250
1764842191.1816664,0,0,-368,-46.000
1764842191.1856618,0,0,-367,-45.875
1764842191.1896555,1,1,-351,-43.875
1764842191.1936474,0,0,-271,-33.875
1764842191.197665,0,0,-329,-41.125
1764842191.2017467,0,0,-345,-43.125
1764842191.205676,0,0,-348,-43.500
1764842191.2096615,1,1,-340,-42.500
1764842191.213645,0,0,-271,-33.875
1764842191.2176604,0,0,-317,-39.625
1764842191.2216654,0,0,-329,-41.125
1764842191.2256627,0,0,-331,-41.375
1764842191.2296548,1,1,-321,-40.125
1764842191.2336426,0,0,-210,-26.250
1764842191.23766,0,0,-286,-35.750
1764842191.2416627,0,0,-309,-38.625
1764842191.2456632,0,0,-313,-39.125
1764842191.2497613,1,1,-309,-38.625
1764842191.253621,0,0,-218,-27.250
1764842191.2576218,0,0,-277,-34.625
1764842191.2616189,0,0,-295,-36.875
1764842191.2656415,0,0,-298,-37.250
1764842191.2696123,1,1,-294,-36.750
1764842191.2735999,0,0,-178,-22.250
1764842191.2776175,0,0,-252,-31.500
1764842191.2816176,0,0,-277,-34.625
1764842191.285617,0,0,-282,-35.250
1764842191.2896128,1,1,-281,-35.125
1764842191.2936022,0,0,-185,-23.125
1764842191.297617,0,0,-244,-30.500
1764842191.3016195,0,0,-264,-33.000
1764842191.3056183,0,0,-269,-33.625
1764842191.3096244,1,1,-267,-33.375
1764842191.3136172,0,0,-160,-20.000
1764842191.3176186,0,0,-223,-27.875
1764842191.3216164,0,0,-249,-31.125
1764842191.3256185,0,0,-256,-32.000
1764842191.3296244,1,1,-254,-31.750
1764842191.3336208,0,0,-167,-20.875
1764842191.3376207,0,0,-216,-27.000
1764842191.3416152,0,0,-237,-29.625
1764842191.3456178,0,0,-244,-30.500
1764842191.3496122,1,1,-242,-30.250
1764842191.3536026,0,0,-154,-19.250
1764842191.3576162,0,0,-201,-25.125
1764842191.361616,0,0,-225,-28.125
1764842191.3656168,0,0,-231,-28.875
1764842191.3696222,1,1,-229,-28.625
1764842191.3736176,0,0,-143,-17.875
1764842191.3776174,0,0,-186,-23.250
1764842191.3816147,0,0,-213,-26.625
1764842191.385613,0,0,-219,-27.375
1764842191.3896198,1,1,-219,-27.375
1764842191.3936174,0,0,-138,-17.250
1764842191.3976226,0,0,-174,-21.750
1764842191.4016829,0,0,-201,-25.125
1764842191.4056246,0,0,-208,-26.000
1764842191.4096165,1,1,-208,-26.000
1764842191.4136028,0,0,-95,-11.875
1764842191.417619,0,0,-145,-18.125
1764842191.4216225,0,0,-185,-23.125
1764842191.4256153,0,0,-197,-24.625
1764842191.4296074,1,1,-197,-24.625
1764842191.4336,0,0,-22,-2.750
1764842191.4376183,0,0,-94,-11.750
1764842191.4416173,0,0,-165,-20.625
1764842191.4456115,0,0,-184,-23.000
1764842191.449656,1,1,-188,-23.500
1764842191.453619,0,0,20,2.500
1764842191.457618,0,0,-59,-7.375
1764842191.461614,0,0,-148,-18.500
1764842191.4656131,0,0,-175,-21.875
1764842191.4696157,1,1,-180,-22.500
1764842191.473616,0,0,15,1.875
1764842191.4776182,0,0,-49,-6.125
1764842191.481615,0,0,-140,-17.500
1764842191.4856138,0,0,-169,-21.125
1764842191.489618,1,1,-174,-21.750
1764842191.4936094,0,0,8,1.000
1764842191.4976184,0,0,-40,-5.000
1764842191.5016155,0,0,-134,-16.750
1764842191.5056138,0,0,-161,-20.125
1764842191.509614,1,1,-167,-20.875
1764842191.513611,0,0,68,8.500
1764842191.51762,0,0,19,2.375
1764842191.5216143,0,0,-113,-14.125
1764842191.5256116,0,0,-152,-19.000
1764842191.5296156,1,1,-162,-20.250
1764842191.533615,0,0,61,7.625
1764842191.5376134,0,0,31,3.875
1764842191.5416005,0,0,-106,-13.250
1764842191.545599,0,0,-147,-18.375
1764842191.549629,1,1,-157,-19.625
1764842191.5536122,0,0,114,14.250
1764842191.5576103,0,0,98,12.250
1764842191.5615962,0,0,-83,-10.375
1764842191.565598,0,0,-138,-17.250
1764842191.5696192,1,1,-153,-19.125
1764842191.5736146,0,0,50,6.250
1764842191.5776145,0,0,63,7.875
1764842191.581616,0,0,-92,-11.500
1764842191.585613,0,0,-137,-17.125
1764842191.5896182,1,1,-149,-18.625
1764842191.5936103,0,0,71,8.875
1764842191.597615,0,0,111,13.875
1764842191.6068552,0,0,-146,-18.250
1764842191.609639,1,1,-146,-18.250
1764842191.613619,0,0,63,7.875
1764842191.617611,0,0,133,16.625
1764842191.621595,0,0,-66,-8.250
1764842191.6255982,0,0,-126,-15.750
1764842191.6296098,1,1,-142,-17.750
1764842191.6335998,0,0,46,5.750
1764842191.6375988,0,0,146,18.250
1764842191.6415946,0,0,-61,-7.625
1764842191.6455963,0,0,-123,-15.375
1764842191.6496172,1,1,-140,-17.500
1764842191.6536503,0,0,23,2.875
1764842191.6576173,0,0,151,18.875
1764842191.6616094,0,0,-57,-7.125
1764842191.6656098,0,0,-120,-15.000
1764842191.6696153,1,1,-137,-17.125
1764842191.6736162,0,0,21,2.625
1764842191.6776187,0,0,197,24.625
1764842191.6816092,0,0,-43,-5.375
1764842191.6856108,0,0,-114,-14.250
1764842191.6896183,1,1,-134,-16.750
1764842191.6936104,0,0,13,1.625
1764842191.697615,0,0,239,29.875
1764842191.7016096,0,0,-109,-13.625
1764842191.705611,0,0,-132,-16.500
1764842191.7096112,1,1,9,1.125
1764842191.713612,0,0,298,37.250
1764842191.7176166,0,0,-10,-1.250
1764842191.721611,0,0,-103,-12.875
1764842191.7256079,0,0,-130,-16.250
1764842191.729613,1,1,-24,-3.000
1764842191.7336125,0,0,288,36.000
1764842191.737614,0,0,-13,-1.625
1764842191.7416105,0,0,-103,-12.875
1764842191.7456074,0,0,-129,-16.125
1764842191.7496152,1,1,-55,-6.875
1764842191.7536473,0,0,263,32.875
1764842191.7576118,0,0,-17,-2.125
1764842191.7615962,0,0,-103,-12.875
1764842191.7655954,0,0,-128,-16.000
1764842191.7696085,1,1,-72,-9.000
1764842191.7736096,0,0,269,33.625
1764842191.777605,0,0,-12,-1.500
1764842191.7815955,0,0,-100,-12.500
1764842191.785595,0,0,-126,-15.750
1764842191.7895958,1,1,-74,-9.250
1764842191.7935932,0,0,330,41.250
1764842191.7976093,0,0,12,1.500
1764842191.8016117,0,0,-93,-11.625
1764842191.8056862,0,0,-124,-15.500
1764842191.8096204,1,1,-83,-10.375
1764842191.8135948,0,0,357,44.625
1764842191.8176107,0,0,26,3.250
1764842191.8216114,0,0,-88,-11.000
1764842191.8256106,0,0,-122,-15.250
1764842191.8296063,1,1,-101,-12.625
1764842191.8335936,0,0,307,38.375
1764842191.8376076,0,0,16,2.000
1764842191.8416102,0,0,-90,-11.250
1764842191.8456113,0,0,-121,-15.125
1764842191.849614,1,1,-96,-12.000
1764842191.853606,0,0,420,52.500
1764842191.857604,0,0,63,7.875
1764842191.8615932,0,0,-76,-9.500
1764842191.8655934,0,0,-119,-14.875
1764842191.8696115,1,1,-81,-10.125
1764842191.873609,0,0,615,76.875
1764842191.8776126,0,0,146,18.250
1764842191.8816104,0,0,-54,-6.750
1764842191.885614,0,0,-114,-14.250
1764842191.889604,1,1,-106,-13.250
1764842191.893593,0,0,496,62.000
1764842191.8976054,0,0,111,13.875
1764842191.9016082,0,0,-67,-8.375
1764842191.9056087,0,0,-119,-14.875
1764842191.9096017,1,1,-133,-16.625
1764842191.913593,0,0,114,14.250
1764842191.9176135,0,0,-31,-3.875
1764842191.921612,0,0,-107,-13.375
1764842191.9256074,0,0,-129,-16.125
1764842191.9296145,1,1,-122,-15.250
1764842191.933612,0,0,473,59.125
1764842191.9376154,0,0,136,17.000
1764842191.941608,0,0,-57,-7.125
1764842191.9456062,0,0,-115,-14.375
1764842191.9496136,1,1,-118,-14.750
1764842191.9536102,0,0,580,72.500
1764842191.9577193,0,0,203,25.375
1764842191.9616528,0,0,-40,-5.000
1764842191.9656498,0,0,-113,-14.125
1764842191.969657,1,1,-120,-15.000
1764842191.9736524,0,0,654,81.750
1764842191.977758,0,0,261,32.625
1764842191.9820216,0,0,-27,-3.375
1764842191.9857347,0,0,-112,-14.000
1764842191.9896657,1,1,-129,-16.125
1764842191.9936533,0,0,625,78.125
1764842191.9976566,0,0,272,34.000
1764842192.0016515,0,0,-26,-3.250
1764842192.0057209,0,0,-116,-14.500
1764842192.0096653,1,1,-138,-17.250
1764842192.0136538,0,0,559,69.875
1764842192.0176563,0,0,266,33.250
1764842192.0216556,0,0,-31,-3.875
1764842192.0256515,0,0,-121,-15.125
1764842192.0296423,1,1,-142,-17.750
1764842192.033631,0,0,619,77.375
1764842192.0376425,0,0,333,41.625
1764842192.0416348,0,0,-15,-1.875
1764842192.0456345,0,0,-120,-15.000
1764842192.0496514,1,1,-147,-18.375
1764842192.0536516,0,0,607,75.875
1764842192.0577455,0,0,362,45.250
1764842192.0616124,0,0,-10,-1.250
1764842192.0656078,0,0,-122,-15.250
1764842192.0696084,1,1,-153,-19.125
1764842192.0736048,0,0,534,66.750
1764842192.0776093,0,0,355,44.375
1764842192.0816054,0,0,-16,-2.000
1764842192.0856063,0,0,-127,-15.875
1764842192.0896094,1,1,-159,-19.875
1764842192.0936067,0,0,545,68.125
1764842192.09761,0,0,410,51.250
1764842192.10161,0,0,-4,-0.500
1764842192.1056135,0,0,-127,-15.875
1764842192.1096015,1,1,-163,-20.375
1764842192.1135888,0,0,525,65.625
1764842192.1176052,0,0,449,56.125
1764842192.1216085,0,0,4,0.500
1764842192.1256065,0,0,-130,-16.250
1764842192.1295998,1,1,-167,-20.875
1764842192.133589,0,0,532,66.500
1764842192.137607,0,0,519,64.875
1764842192.1416087,0,0,20,2.500
1764842192.1456087,0,0,-129,-16.125
1764842192.1496139,1,1,-172,-21.500
1764842192.153608,0,0,527,65.875
1764842192.1576438,0,0,591,73.875
1764842192.1616077,0,0,37,4.625
1764842192.1656077,0,0,-129,-16.125
1764842192.1696105,1,1,-178,-22.250
1764842192.173607,0,0,592,74.000
1764842192.1776106,0,0,755,94.375
1764842192.1816058,0,0,79,9.875
1764842192.1856158,0,0,-124,-15.500
1764842192.1896124,1,1,-183,-22.875
1764842192.19361,0,0,645,80.625
1764842192.197611,0,0,925,115.625
1764842192.2016046,0,0,121,15.125
1764842192.2056835,0,0,-120,-15.000
1764842192.2096176,1,1,-190,-23.750
1764842192.213592,0,0,564,70.500
1764842192.2176075,0,0,971,121.375
1764842192.2216043,0,0,126,15.750
1764842192.2256038,0,0,-127,-15.875
1764842192.2295969,1,1,-202,-25.250
1764842192.2335906,0,0,615,76.875
1764842192.2376077,0,0,1191,148.875
1764842192.241604,0,0,184,23.000
1764842192.2456038,0,0,-121,-15.125
1764842192.2496073,1,1,-211,-26.375
1764842192.2536044,0,0,427,53.375
1764842192.2576456,0,0,1085,135.625
1764842192.2616076,0,0,146,18.250
1764842192.2656038,0,0,-141,-17.625
1764842192.2696078,1,1,-226,-28.250
1764842192.2736044,0,0,505,63.125
1764842192.2776103,0,0,1381,172.625
1764842192.2816067,0,0,232,29.000
1764842192.2856016,0,0,-126,-15.750
1764842192.2895987,1,1,-233,-29.125
1764842192.2935889,0,0,413,51.625
1764842192.2976034,0,0,1408,176.000
1764842192.3016021,0,0,237,29.625
1764842192.305603,0,0,-136,-17.000
1764842192.309608,1,1,-247,-30.875
1764842192.3136013,0,0,414,51.750
1764842192.3176067,0,0,1600,200.000
1764842192.321603,0,0,-131,-16.375
1764842192.325605,0,0,-258,-32.250
1764842192.3296082,1,1,397,49.625
1764842192.3336248,0,0,1761,220.125
1764842192.3376062,0,0,355,44.375
1764842192.3415995,0,0,-128,-16.000
1764842192.3456004,0,0,-272,-34.000
1764842192.3496034,1,1,309,38.625
1764842192.3536024,0,0,1779,222.375
1764842192.3575974,0,0,367,45.875
1764842192.361684,0,0,-138,-17.250
1764842192.3656297,0,0,-289,-36.125
1764842192.36965,1,1,188,23.500
1764842192.373643,0,0,1718,214.750
1764842192.3776436,0,0,358,44.750
1764842192.3816502,0,0,-153,-19.125
1764842192.3856494,0,0,-305,-38.125
1764842192.3896537,1,1,184,23.000
1764842192.393648,0,0,1901,237.625
1764842192.397653,0,0,439,54.875
1764842192.4016504,0,0,-142,-17.750
1764842192.4057288,0,0,-316,-39.500
1764842192.4096582,1,1,148,18.500
1764842192.4136286,0,0,2008,251.000
1764842192.4176478,0,0,500,62.500
1764842192.4216523,0,0,-138,-17.250
1764842192.4256485,0,0,-330,-41.250
1764842192.4296396,1,1,97,12.125
1764842192.4336283,0,0,2076,259.500
1764842192.437644,0,0,555,69.375
1764842192.4416482,0,0,-138,-17.250
1764842192.4456465,0,0,-345,-43.125
1764842192.4496527,1,1,121,15.125
1764842192.4536488,0,0,2337,292.125
1764842192.4576507,0,0,693,86.625
1764842192.4617302,0,0,-114,-14.250
1764842192.465604,0,0,-356,-44.500
1764842192.469607,1,1,22,2.750
1764842192.473602,0,0,2268,283.500
1764842192.4776075,0,0,707,88.375
1764842192.481603,0,0,-127,-15.875
1764842192.485606,0,0,-376,-47.000
1764842192.489597,1,1,7,0.875
1764842192.4935842,0,0,2427,303.375
1764842192.4976032,0,0,822,102.750
1764842192.5016007,0,0,-112,-14.000
1764842192.505601,0,0,-390,-48.750
1764842192.509592,1,1,-87,-10.875
1764842192.5135853,0,0,2326,290.750
1764842192.517604,0,0,833,104.125
1764842192.5216002,0,0,-126,-15.750
1764842192.5256002,0,0,-412,-51.500
1764842192.5296035,1,1,-126,-15.750
1764842192.5336022,0,0,2408,301.000
1764842192.5376,0,0,940,117.500
1764842192.5415862,0,0,-111,-13.875
1764842192.5455823,0,0,-426,-53.250
1764842192.5496042,1,1,-146,-18.250
1764842192.5536036,0,0,2530,316.250
1764842192.5576088,0,0,1075,134.375
1764842192.561615,0,0,-91,-11.375
1764842192.5656018,0,0,-440,-55.000
1764842192.569604,1,1,-179,-22.375
1764842192.5735996,0,0,2614,326.750
1764842192.5776067,0,0,1216,152.000
1764842192.5816019,0,0,-70,-8.750
1764842192.5856,0,0,-455,-56.875
1764842192.5896032,1,1,-265,-33.125
1764842192.5935986,0,0,2478,309.750
1764842192.5976026,0,0,1248,156.000
1764842192.6016004,0,0,-80,-10.000
1764842192.610848,1,1,-254,-31.750
1764842192.613627,0,0,2722,340.250
1764842192.6176074,0,0,1516,189.500
1764842192.6215868,0,0,-24,-3.000
1764842192.625586,0,0,-484,-60.500
1764842192.6296048,1,1,-260,-32.500
1764842192.6335993,0,0,2870,358.750
1764842192.6376004,0,0,1755,219.375
1764842192.641585,0,0,22,2.750
1764842192.6455839,0,0,-498,-62.250
1764842192.6496046,1,1,-315,-39.375
1764842192.6536007,0,0,2830,353.750
1764842192.6576035,0,0,1889,236.125
1764842192.6616013,0,0,35,4.375
1764842192.6656387,0,0,-521,-65.125
1764842192.6695929,1,1,-410,-51.250
1764842192.6735797,0,0,2616,327.000
1764842192.6776018,0,0,1886,235.750
1764842192.6816006,0,0,8,1.000
1764842192.6856022,0,0,-554,-69.250
1764842192.689608,1,1,-659,-82.375
1764842192.6936014,0,0,1317,164.625
1764842192.697615,0,0,1144,143.000
1764842192.701599,0,0,-224,-28.000
1764842192.705599,0,0,-631,-78.875
1764842192.7096074,1,1,-561,-70.125
1764842192.713602,0,0,2257,282.125
1764842192.7176018,0,0,2102,262.750
1764842192.7215967,0,0,47,5.875
1764842192.7256017,0,0,-570,-71.250
1764842192.7296069,1,1,-570,-71.250
1764842192.7336006,0,0,2252,281.500
1764842192.7376013,0,0,2341,292.625
1764842192.7415981,0,0,98,12.250
1764842192.745604,0,0,-579,-72.375
1764842192.7495966,1,1,-567,-70.875
1764842192.7535841,0,0,2417,302.125
1764842192.7575996,0,0,2719,339.875
1764842192.7615967,0,0,193,24.125
1764842192.765633,0,0,-578,-72.250
1764842192.769592,1,1,-653,-81.625
1764842192.7735827,0,0,2088,261.000
1764842192.7775974,0,0,2693,336.625
1764842192.7815974,0,0,168,21.000
1764842192.7855954,0,0,-612,-76.500
1764842192.789586,1,1,-737,-92.125
1764842192.7935812,0,0,1758,219.750
1764842192.7975972,0,0,2646,330.750
1764842192.8015943,0,0,143,17.875
1764842192.8055933,0,0,-641,-80.125
1764842192.809675,1,1,-743,-92.875
1764842192.8136108,0,0,1918,239.750
1764842192.8175974,0,0,3085,385.625
1764842192.82158,0,0,275,34.375
1764842192.825578,0,0,-628,-78.500
1764842192.8296022,1,1,-791,-98.875
1764842192.8335993,0,0,1721,215.125
1764842192.8375943,0,0,3145,393.125
1764842192.8415792,0,0,290,36.250
1764842192.8455796,0,0,-649,-81.125
1764842192.8495996,1,1,-836,-104.500
1764842192.8535974,0,0,1600,200.000
1764842192.857603,0,0,3288,411.000
1764842192.8615987,0,0,339,42.375
1764842192.8656332,0,0,-660,-82.500
1764842192.8696,1,1,-894,-111.750
1764842192.8735967,0,0,1314,164.250
1764842192.8775938,0,0,3235,404.375
1764842192.8815985,0,0,330,41.250
1764842192.8856,0,0,-685,-85.625
1764842192.889596,1,1,-940,-117.500
1764842192.8935916,0,0,1116,139.500
1764842192.8975954,0,0,3268,408.500
1764842192.9015982,0,0,360,45.000
1764842192.9055972,0,0,-698,-87.250
1764842192.909589,1,1,-976,-122.000
1764842192.9135787,0,0,945,118.125
1764842192.9175959,0,0,3323,415.375
1764842192.9215991,0,0,406,50.750
1764842192.9255958,0,0,-704,-88.000
1764842192.9295988,1,1,-1000,-125.000
1764842192.9335887,0,0,906,113.250
1764842192.9375951,0,0,3535,441.875
1764842192.9415932,0,0,-692,-86.500
1764842192.9455926,0,0,-1012,-126.500
1764842192.949594,1,1,961,120.125
1764842192.9535928,0,0,3857,482.125
1764842192.9575944,0,0,680,85.000
1764842192.961591,0,0,-669,-83.625
1764842192.9655943,0,0,-1030,-128.750
1764842192.9696016,1,1,934,116.750
1764842192.9735916,0,0,4067,508.375
1764842192.9776866,0,0,811,101.375
1764842192.98192,0,0,-657,-82.125
1764842192.9856563,0,0,-1060,-132.500
1764842192.9896066,1,1,798,99.750
1764842192.9935935,0,0,4115,514.375
1764842192.997594,0,0,886,110.750
1764842193.0015895,0,0,-662,-82.750
1764842193.005589,0,0,-1088,-136.000
1764842193.0096688,1,1,734,91.750
1764842193.0136073,0,0,4255,531.875
1764842193.0175862,0,0,1017,127.125
1764842193.021577,0,0,-652,-81.500
1764842193.0255764,0,0,-1131,-141.375
1764842193.029602,1,1,441,55.125
1764842193.0335948,0,0,4064,508.000
1764842193.0377884,0,0,1015,126.875
1764842193.0415792,0,0,-679,-84.875
1764842193.0455778,0,0,-1166,-145.750
1764842193.0495846,1,1,339,42.375
1764842193.0535808,0,0,4111,513.875
1764842193.057583,0,0,1130,141.250
1764842193.0615764,0,0,-670,-83.750
1764842193.0655756,0,0,-1191,-148.875
1764842193.0695803,1,1,204,25.500
1764842193.0735776,0,0,4105,513.125
1764842193.0776076,0,0,1236,154.500
1764842193.0815973,0,0,-662,-82.750
1764842193.085595,0,0,-1217,-152.125
1764842193.0895965,1,1,63,7.875
1764842193.0935946,0,0,4053,506.625
1764842193.0975983,0,0,1330,166.250
1764842193.1015935,0,0,-658,-82.250
1764842193.1055913,0,0,-1230,-153.750
1764842193.1095963,1,1,125,15.625
1764842193.1135938,0,0,4286,535.750
1764842193.117599,0,0,1579,197.375
1764842193.1215947,0,0,-612,-76.500
1764842193.125592,0,0,-1256,-157.000
1764842193.1295974,1,1,-198,-24.750
1764842193.1335921,0,0,3927,490.875
1764842193.1375983,0,0,1560,195.000
1764842193.1415935,0,0,-641,-80.125
1764842193.145592,0,0,-1285,-160.625
1764842193.1495974,1,1,-240,-30.000
1764842193.1535962,0,0,3982,497.750
1764842193.1575975,0,0,1757,219.625
1764842193.1615796,0,0,-605,-75.625
1764842193.165577,0,0,-1298,-162.250
1764842193.1695964,1,1,-307,-38.375
1764842193.1735938,1,0,3966,495.750
1764842193.1775901,0,0,1947,243.375
1764842193.1815782,0,0,-573,-71.625
1764842193.1855776,0,0,-1316,-164.500
1764842193.1895998,1,1,-449,-56.125
1764842193.1935909,0,0,3804,475.500
1764842193.1975942,0,0,2060,257.500
1764842193.201592,0,0,-563,-70.375
1764842193.2055933,0,0,-1337,-167.125
1764842193.2096705,1,1,-539,-67.375
1764842193.2136059,0,0,3706,463.250
1764842193.2175903,0,0,2236,279.500
1764842193.2215767,0,0,-533,-66.625
1764842193.2255757,0,0,-1353,-169.125
1764842193.2295842,0,0,-669,-83.625
1764842193.2335727,0,0,3523,440.375
1764842193.2375772,0,0,2376,297.000
1764842193.2415726,0,0,-512,-64.000
1764842193.2455778,0,0,-1366,-170.750
1764842193.2495983,0,0,-593,-74.125
1764842193.2535942,0,0,3691,461.375
1764842193.257594,0,0,2725,340.625
1764842193.2615902,0,0,-429,-53.625
1764842193.2655945,0,0,-1369,-171.125
1764842193.2696342,0,1,-728,-91.000
1764842193.2736,0,0,3467,433.375
1764842193.2775915,0,0,2855,356.875
1764842193.2815745,0,0,-408,-51.000
1764842193.2855744,0,0,-1387,-173.375
1764842193.2895777,0,0,-750,-93.750
1764842193.2935777,0,0,3444,430.500
1764842193.297579,0,0,3105,388.125
1764842193.3015754,0,0,-348,-43.500
1764842193.3055735,0,0,-1398,-174.750
1764842193.3095787,0,0,-1021,-127.625
1764842193.3135772,0,0,2925,365.625
1764842193.3175917,0,0,3040,380.000
1764842193.3215897,0,0,-376,-47.000
1764842193.325589,0,0,-1425,-178.125
1764842193.329596,0,0,-1138,-142.250
1764842193.3335917,1,0,2673,334.125
1764842193.3375928,0,0,3127,390.875
1764842193.3415892,0,0,-353,-44.125
1764842193.3455858,0,0,-1435,-179.375
1764842193.349591,0,0,-1256,-157.000
1764842193.35359,1,0,2386,298.250
1764842193.3575916,0,0,3202,400.250
1764842193.3615904,0,0,-322,-40.250
1764842193.3655853,0,0,-1442,-180.250
1764842193.36961,0,0,-1316,-164.500
1764842193.3735886,1,0,2227,278.375
1764842193.3775933,0,0,3383,422.875
1764842193.3815877,0,0,-250,-31.250
1764842193.3855834,0,0,-1436,-179.500
1764842193.389581,0,0,-1239,-154.875
1764842193.3935723,1,1,2407,300.875
1764842193.397586,0,0,3795,474.375
1764842193.4015894,0,0,-102,-12.750
1764842193.405591,0,0,-1414,-176.750
1764842193.4096637,0,0,-1372,-171.500
1764842193.4136024,1,0,2039,254.875
1764842193.417589,0,0,3785,473.125
1764842193.4215763,0,0,-82,-10.250
1764842193.4255743,0,0,-1425,-178.125
1764842193.4295905,0,0,-1280,-160.000
1764842193.4335873,1,1,2277,284.625
1764842193.4375882,0,0,4239,529.875
1764842193.4415734,0,0,97,12.125
1764842193.4455721,0,0,-1396,-174.500
1764842193.4495938,0,0,-1388,-173.500
1764842193.4535894,1,1,1982,247.750
1764842193.45759,0,0,4170,521.250
1764842193.4615908,0,0,81,10.125
1764842193.465592,0,0,-1423,-177.875
1764842193.4695964,0,0,-1766,-220.750
1764842193.4735892,1,1,506,63.250
1764842193.4775925,0,0,3078,384.750
1764842193.4815905,0,0,-230,-28.750
1764842193.485592,0,0,-1511,-188.875
1764842193.4895945,0,0,-1632,-204.000
1764842193.4935887,1,1,1226,153.250
1764842193.497592,0,0,4068,508.500
1764842193.5015886,0,0,193,24.125
1764842193.505589,0,0,-1399,-174.875
1764842193.5095928,0,0,-1584,-198.000
1764842193.5135887,1,1,1297,162.125
1764842193.517592,0,0,4353,544.125
1764842193.521588,0,0,359,44.875
1764842193.5255854,0,0,-1366,-170.750
1764842193.5295937,0,0,-1641,-205.125
1764842193.5335898,1,1,1049,131.125
1764842193.5375834,0,0,4337,542.125
1764842193.5415697,0,0,429,53.625
1764842193.545571,0,0,-1362,-170.250
1764842193.549596,0,0,-1677,-209.625
1764842193.5535905,1,1,889,111.125
1764842193.5575893,0,0,4377,547.125
1764842193.561585,0,0,-1349,-168.625
1764842193.5655859,0,0,-1713,-214.125
1764842193.5696073,0,0,722,90.250
1764842193.5735877,1,1,4410,551.250
1764842193.577591,0,0,639,79.875
1764842193.5815864,0,0,-1330,-166.250
1764842193.5855846,0,0,-1734,-216.750
1764842193.5895908,0,0,605,75.625
1764842193.5935931,1,1,4468,558.500
1764842193.5975916,0,0,771,96.375
1764842193.601569,0,0,-1306,-163.250
1764842193.6055684,0,0,-1771,-221.375
1764842193.6152983,0,0,4398,549.750
1764842193.61761,0,0,864,108.000
1764842193.6215734,0,0,-1292,-161.500
1764842193.625596,0,0,-1621,-202.625
1764842193.6296,0,0,1080,135.000
1764842193.6335778,1,1,5265,658.125
1764842193.6378043,0,0,1347,168.375
1764842193.6416132,0,0,-1179,-147.375
1764842193.6455905,0,0,-1823,-227.875
1764842193.6495926,0,0,-35,-4.375
1764842193.6535897,1,1,4186,523.250
1764842193.6575933,0,0,1022,127.750
1764842193.6615975,0,0,-1286,-160.750
1764842193.6655884,0,0,-1851,-231.375
1764842193.6696167,0,0,-15,-1.875
1764842193.673586,1,1,4345,543.125
1764842193.677592,0,0,1265,158.125
1764842193.6815922,0,0,-1226,-153.250
1764842193.6855888,0,0,-1843,-230.375
1764842193.6895785,0,0,-23,-2.875
1764842193.6935673,1,1,4435,554.375
1764842193.697584,0,0,1483,185.375
1764842193.7015882,0,0,-1176,-147.000
1764842193.7055857,0,0,-1856,-232.000
1764842193.709576,0,0,-159,-19.875
1764842193.7135677,1,1,4358,544.750
1764842193.7175884,0,0,1648,206.000
1764842193.7215898,0,0,-1142,-142.750
1764842193.7255867,0,0,-1878,-234.750
1764842193.7295895,0,0,-371,-46.375
1764842193.733584,1,1,4157,519.625
1764842193.737588,0,0,1778,222.250
1764842193.741587,0,0,-1116,-139.500
1764842193.7455869,0,0,-1887,-235.875
1764842193.7495906,0,0,-460,-57.500
1764842193.753584,1,1,4093,511.625
1764842193.7576113,0,0,1987,248.375
1764842193.7615952,0,0,-1066,-133.250
1764842193.7655878,0,0,-1893,-236.625
1764842193.7696223,0,0,-562,-70.250
1764842193.7735884,1,1,3996,499.500
1764842193.7775884,0,0,2187,273.375
1764842193.7815838,0,0,-1018,-127.250
1764842193.785586,0,0,-1903,-237.875
1764842193.7895799,0,0,-734,-91.750
1764842193.7935712,1,1,3766,470.750
1764842193.7975836,0,0,2310,288.750
1764842193.8015842,0,0,-989,-123.625
1764842193.8055863,0,0,-1908,-238.500
1764842193.8095903,0,0,-806,-100.750
1764842193.813698,1,1,3678,459.750
1764842193.8175986,0,0,2553,319.125
1764842193.8215709,0,0,-921,-115.125
1764842193.825568,0,0,-1898,-237.250
1764842193.8295882,0,0,-774,-96.750
1764842193.8335867,1,1,3732,466.500
1764842193.8375804,0,0,2858,357.250
1764842193.8415675,0,0,-835,-104.375
1764842193.8455665,0,0,-1897,-237.125
1764842193.84959,0,0,-933,-116.625
1764842193.8535883,1,1,3479,434.875
1764842193.8575902,0,0,2991,373.875
1764842193.8615806,0,0,-796,-99.500
1764842193.8655813,0,0,-1901,-237.625
1764842193.8695872,0,0,-1006,-125.750
1764842193.8736231,1,1,3356,419.500
1764842193.8775892,0,0,3206,400.750
1764842193.881581,0,0,-727,-90.875
1764842193.885583,0,0,-1901,-237.625
1764842193.889586,0,0,-1191,-148.875
1764842193.8935835,1,1,3030,378.750
1764842193.8975801,0,0,3277,409.625
1764842193.90157,0,0,-696,-87.000
1764842193.9055657,0,0,-1903,-237.875
1764842193.9095898,0,0,-1339,-167.375
1764842193.9135869,1,1,2740,342.500
1764842193.9175806,0,0,3376,422.000
1764842193.9215677,0,0,-647,-80.875
1764842193.9255707,0,0,-1896,-237.000
1764842193.9295835,0,0,-1256,-157.000
1764842193.933581,1,1,2868,358.500
1764842193.9375808,0,0,3749,468.625
1764842193.941569,0,0,-509,-63.625
1764842193.945565,0,0,-1873,-234.125
1764842193.949589,0,0,-1476,-184.500
1764842193.953584,1,1,2406,300.750
1764842193.9575899,0,0,3709,463.625
1764842193.9615831,0,0,-492,-61.500
1764842193.9655843,0,0,-1875,-234.375
1764842193.969585,0,0,-1438,-179.750
1764842193.9736166,1,1,2461,307.625
1764842193.9776843,0,0,4037,504.625
1764842193.9819193,0,0,-348,-43.500
1764842193.9856417,0,0,-1847,-230.875
1764842193.9895928,0,0,-1505,-188.125
1764842193.993579,1,1,2288,286.000
1764842193.99758,0,0,4166,520.750
1764842194.0015802,0,0,-265,-33.125
1764842194.005582,0,0,-1836,-229.500
1764842194.0095837,0,0,-1609,-201.125
1764842194.0136487,1,1,2025,253.125
1764842194.0175889,0,0,4231,528.875
1764842194.02157,0,0,-189,-23.625
1764842194.0255728,0,0,-1825,-228.125
1764842194.0295897,0,0,-1608,-201.000
1764842194.0335813,1,1,1999,249.875
1764842194.03758,0,0,4467,558.375
1764842194.0415685,0,0,-47,-5.875
1764842194.0456665,0,0,-1798,-224.750
1764842194.0499659,0,0,-1714,-214.250
1764842194.0536506,1,1,1702,212.750
1764842194.0575905,0,0,4457,557.125
1764842194.061616,0,0,16,2.000
1764842194.0655885,0,0,-1790,-223.750
1764842194.0695777,0,0,-1849,-231.125
1764842194.0735993,1,1,1296,162.000
1764842194.0775855,0,0,4340,542.500
1764842194.0815845,0,0,52,6.500
1764842194.0855901,0,0,-1784,-223.000
1764842194.0895784,0,0,-1840,-230.000
1764842194.0935674,1,1,1294,161.750
1764842194.0975773,0,0,4552,569.000
1764842194.101581,0,0,219,27.375
1764842194.1055803,0,0,-1745,-218.125
1764842194.1095746,0,0,-1882,-235.250
1764842194.1135666,1,1,1112,139.000
1764842194.117588,0,0,4588,573.500
1764842194.1215787,0,0,326,40.750
1764842194.12558,0,0,-1722,-215.250
1764842194.1295867,0,0,-1946,-243.250
1764842194.13358,1,1,847,105.875
1764842194.1375856,0,0,4541,567.625
1764842194.1415775,0,0,423,52.875
1764842194.1455772,0,0,-1699,-212.375
1764842194.1495817,0,0,-1984,-248.000
1764842194.1535811,1,1,660,82.500
1764842194.1575866,0,0,4537,567.125
1764842194.1615784,0,0,547,68.375
1764842194.1655772,0,0,-1669,-208.625
1764842194.1695836,0,0,-2018,-252.250
1764842194.1736145,1,1,464,58.000
1764842194.177587,0,0,4519,564.875
1764842194.1815808,0,0,693,86.625
1764842194.185577,0,0,-1981,-247.625
1764842194.1895719,0,0,573,71.625
1764842194.1935644,1,1,4772,596.500
1764842194.1975958,0,0,938,117.250
1764842194.2015836,0,0,-1569,-196.125
1764842194.20558,0,0,-2020,-252.500
1764842194.2095852,0,0,339,42.375
1764842194.2136555,1,1,4670,583.750
1764842194.2175953,0,0,1070,133.750
1764842194.2215686,0,0,-1539,-192.375
1764842194.2255642,0,0,-1922,-240.250
1764842194.2295797,0,0,742,92.750
1764842194.23358,1,1,5190,648.750
1764842194.237574,0,0,1463,182.875
1764842194.2415628,0,0,-1444,-180.500
1764842194.2455642,0,0,-2093,-261.625
1764842194.249575,0,0,-193,-24.125
1764842194.2535625,1,1,4273,534.125
1764842194.2575638,0,0,1156,144.500
1764842194.2615647,0,0,-1535,-191.875
1764842194.2655632,0,0,-2187,-273.375
1764842194.2695816,0,0,-1355,-169.375
1764842194.2735784,1,1,2724,340.500
1764842194.2776203,0,0,693,86.625
1764842194.2815816,0,0,-1639,-204.875
1764842194.285579,0,0,-2119,-264.875
1764842194.2895727,0,0,-285,-35.625
1764842194.2935603,1,1,4341,542.625
1764842194.2975752,0,0,1763,220.375
1764842194.3015804,0,0,-1331,-166.375
1764842194.3055816,0,0,-2078,-259.750
1764842194.3095846,0,0,-428,-53.500
1764842194.3135788,1,1,4198,524.750
1764842194.3175824,0,0,1926,240.750
1764842194.3215773,0,0,-1289,-161.125
1764842194.3255792,0,0,-2098,-262.250
1764842194.3295832,0,0,-713,-89.125
1764842194.3335803,1,1,3861,482.625
1764842194.3375812,0,0,2018,252.250
1764842194.3415763,0,0,-1261,-157.625
1764842194.3455746,0,0,-2097,-262.125
1764842194.3495817,0,0,-764,-95.500
1764842194.353579,1,1,3810,476.250
1764842194.3575816,0,0,2251,281.375
1764842194.3615768,0,0,-1191,-148.875
1764842194.36558,0,0,-2096,-262.000
1764842194.3695836,0,0,-953,-119.125
1764842194.3735793,1,1,3550,443.750
1764842194.3776057,0,0,2409,301.125
1764842194.3816195,0,0,-1139,-142.375
1764842194.3856177,0,0,-2085,-260.625
1764842194.389627,0,0,-950,-118.750
1764842194.393621,1,1,3546,443.250
1764842194.3976264,0,0,2679,334.875
1764842194.401619,0,0,-1053,-131.625
1764842194.405618,0,0,-2076,-259.500
1764842194.4096138,0,0,-1114,-139.250
1764842194.4137173,1,1,3289,411.125
1764842194.417645,0,0,2802,350.250
1764842194.42162,0,0,-1006,-125.750
1764842194.4256186,0,0,-2067,-258.375
1764842194.4296217,0,0,-1073,-134.125
1764842194.4336205,1,1,3338,417.250
1764842194.4376209,0,0,3125,390.625
1764842194.441602,0,0,-897,-112.125
1764842194.4456003,0,0,-2056,-257.000
1764842194.4496229,0,0,-1538,-192.250
1764842194.4536226,1,1,2493,311.625
1764842194.4576259,0,0,2862,357.750
1764842194.4616199,0,0,-953,-119.125
1764842194.4656184,0,0,-2065,-258.125
1764842194.4696236,0,0,-1606,-200.750
1764842194.47362,1,1,2325,290.625
1764842194.4776988,0,0,3041,380.125
1764842194.4815805,0,0,-866,-108.250
1764842194.4855757,0,0,-2040,-255.000
1764842194.4895813,0,0,-1652,-206.500
1764842194.493573,1,1,2185,273.125
1764842194.4975796,0,0,3234,404.250
1764842194.5015805,0,0,-767,-95.875
1764842194.5055804,0,0,-2012,-251.500
1764842194.5095687,0,0,-1695,-211.875
1764842194.513559,1,1,2038,254.750
1764842194.5175736,0,0,3426,428.250
1764842194.5215757,0,0,-661,-82.625
1764842194.5255797,0,0,-1983,-247.875
1764842194.5295668,0,0,-1707,-213.375
1764842194.533557,1,1,1956,244.500
1764842194.5375617,0,0,3650,456.250
1764842194.5415616,0,0,-539,-67.375
1764842194.5455596,0,0,-1951,-243.875
1764842194.5495818,0,0,-1709,-213.625
1764842194.5535753,1,1,1903,237.875
1764842194.557579,0,0,3880,485.000
1764842194.561575,0,0,-409,-51.125
1764842194.5655756,0,0,-1919,-239.875
1764842194.5695775,0,0,-1783,-222.875
1764842194.5735729,1,1,1669,208.625
1764842194.5776117,0,0,3955,494.375
1764842194.5815778,0,0,-323,-40.375
1764842194.5855758,0,0,-1897,-237.125
1764842194.5895762,0,0,-1842,-230.250
1764842194.593572,1,1,1459,182.375
1764842194.5975783,0,0,4034,504.250
1764842194.6015723,0,0,-228,-28.500
1764842194.6055737,0,0,-1871,-233.875
1764842194.60958,0,0,-1851,-231.375
1764842194.6189978,0,0,-76,-9.500
1764842194.6215951,0,0,-76,-9.500
1764842194.6255794,0,0,-1832,-229.000
1764842194.6295722,0,0,-1754,-219.250
1764842194.6335607,1,1,1606,200.750
1764842194.6375735,0,0,4627,578.375
1764842194.6415734,0,0,142,17.750
1764842194.6455734,0,0,-1783,-222.875
1764842194.6495705,0,0,-1989,-248.625
1764842194.6535585,1,1,804,100.500
1764842194.6575725,0,0,4127,515.875
1764842194.6615727,0,0,50,6.250
1764842194.6655707,0,0,-1806,-225.750
1764842194.6695774,0,0,-2010,-251.250
1764842194.673575,1,1,698,87.250
1764842194.6776175,0,0,4234,529.250
1764842194.681573,0,0,200,25.000
1764842194.6855688,0,0,-1763,-220.375
1764842194.6895788,0,0,-2108,-263.500
1764842194.6935728,1,1,115,14.375
1764842194.697577,0,0,3836,479.500
1764842194.7015676,0,0,171,21.375
1764842194.7055688,0,0,-1761,-220.125
1764842194.709576,0,0,-2041,-255.125
1764842194.7135735,1,1,417,52.125
1764842194.717576,0,0,4321,540.125
1764842194.7215714,0,0,485,60.625
1764842194.7255716,0,0,-1672,-209.000
1764842194.7295763,0,0,-2048,-256.000
1764842194.7335775,1,1,261,32.625
1764842194.7375746,0,0,4318,539.750
1764842194.7415683,0,0,626,78.250
1764842194.7455661,0,0,-1631,-203.875
1764842194.7495685,0,0,-2086,-260.750
1764842194.7535665,1,1,-53,-6.625
1764842194.7575657,0,0,4120,515.000
1764842194.7615573,0,0,693,86.625
1764842194.7655544,0,0,-1608,-201.000
1764842194.7695713,0,0,-2083,-260.375
1764842194.7735677,1,1,-102,-12.750
1764842194.7775745,0,0,4203,525.375
1764842194.7816684,0,0,904,113.000
1764842194.7856154,0,0,-1546,-193.250
1764842194.7896025,0,0,-2047,-255.875
1764842194.793597,1,1,32,4.000
1764842194.7976153,0,0,4466,558.250
1764842194.8016195,0,0,-1467,-183.375
1764842194.8056188,0,0,-2074,-259.250
1764842194.8096206,0,0,-281,-35.125
1764842194.8136146,1,1,4194,524.250
1764842194.8176906,0,0,1265,158.125
1764842194.8216288,0,0,-1449,-181.125
1764842194.8256176,0,0,-2042,-255.250
1764842194.8296123,0,0,-73,-9.125
1764842194.8336055,1,1,4524,565.500
1764842194.8376234,0,0,1642,205.250
1764842194.8416162,0,0,-1347,-168.375
1764842194.8456156,0,0,-2103,-262.875
1764842194.849608,0,0,-825,-103.125
1764842194.8535943,1,1,3625,453.125
1764842194.8576124,0,0,1411,176.375
1764842194.8616173,0,0,-1410,-176.250
1764842194.865615,0,0,-2125,-265.625
1764842194.8696194,0,0,-1131,-141.375
1764842194.8736138,1,1,3211,401.375
1764842194.87762,0,0,1436,179.500
1764842194.8817027,0,0,-1390,-173.750
1764842194.8855722,0,0,-2110,-263.750
1764842194.8895767,0,0,-1090,-136.250
1764842194.8935697,1,1,3303,412.875
1764842194.8975718,0,0,1741,217.625
1764842194.901572,0,0,-1289,-161.125
1764842194.9055758,0,0,-2085,-260.625
1764842194.9095662,0,0,-1116,-139.500
1764842194.9135551,1,1,3270,408.750
1764842194.917564,0,0,2011,251.375
1764842194.921554,0,0,-1200,-150.000
1764842194.9255676,0,0,-2065,-258.125
1764842194.9295692,0,0,-1234,-154.250
1764842194.9335678,1,1,3072,384.000
1764842194.9375703,0,0,2159,269.875
1764842194.94157,0,0,-1145,-143.125
1764842194.945568,0,0,-2048,-256.000
1764842194.9495735,0,0,-1171,-146.375
1764842194.95357,1,1,3172,396.500
1764842194.9575753,0,0,2507,313.375
1764842194.9615667,0,0,-1031,-128.875
1764842194.9655657,0,0,-2026,-253.250
1764842194.9695756,0,0,-1412,-176.500
1764842194.9735696,1,1,2721,340.125
1764842194.977666,0,0,2517,314.625
1764842194.9819748,0,0,-1012,-126.500
1764842194.9856248,0,0,-2016,-252.000
1764842194.98958,0,0,-1384,-173.000
1764842194.9935665,1,1,2751,343.875
1764842194.997568,0,0,2842,355.250
1764842195.00157,0,0,-893,-111.625
1764842195.0055637,0,0,-1988,-248.500
1764842195.0095677,0,0,-1417,-177.125
1764842195.013566,1,1,2668,333.500
1764842195.0176399,0,0,3009,376.125
1764842195.021582,0,0,-829,-103.625
1764842195.025569,0,0,-1974,-246.750
1764842195.029563,0,0,-1760,-220.000
1764842195.0335522,1,1,1871,233.875
1764842195.0375583,0,0,2751,343.875
1764842195.0415623,0,0,-875,-109.375
1764842195.0455565,0,0,-1976,-247.000
1764842195.0495698,0,0,-1838,-229.750
1764842195.0535643,1,1,1599,199.875
1764842195.0575683,0,0,2870,358.750
1764842195.0615637,0,0,-790,-98.750
1764842195.065564,0,0,-1943,-242.875
1764842195.0695648,0,0,-1730,-216.250
1764842195.073562,1,1,1838,229.750
1764842195.0775738,0,0,3344,418.000
1764842195.0816052,0,0,-594,-74.250
1764842195.085572,0,0,-1890,-236.250
1764842195.089572,0,0,-1802,-225.250
1764842195.0935662,1,1,1570,196.250
1764842195.097569,0,0,3413,426.625
1764842195.1015697,0,0,-521,-65.125
1764842195.105569,0,0,-1867,-233.375
1764842195.1095726,0,0,-1795,-224.375
1764842195.1135645,1,1,1537,192.125
1764842195.1175706,0,0,3643,455.375
1764842195.1215682,0,0,-392,-49.000
1764842195.1255777,0,0,-1831,-228.875
1764842195.1295664,0,0,-1859,-232.375
1764842195.1335518,1,1,1276,159.500
1764842195.1375666,0,0,3680,460.000
1764842195.1415691,0,0,-319,-39.875
1764842195.1455688,0,0,-1809,-226.125
1764842195.1495621,0,0,-1855,-231.875
1764842195.1535504,1,1,1239,154.875
1764842195.1575692,0,0,3891,486.375
1764842195.161565,0,0,-180,-22.500
1764842195.165564,0,0,-1771,-221.375
1764842195.1695726,0,0,-1936,-242.000
1764842195.1735673,1,1,874,109.250
1764842195.177565,0,0,3786,473.250
1764842195.1815972,0,0,-146,-18.250
1764842195.1855679,0,0,-1758,-219.750
1764842195.189573,0,0,-1977,-247.125
1764842195.1935687,1,1,633,79.125
1764842195.1975675,0,0,3783,472.875
1764842195.2015643,0,0,-59,-7.375
1764842195.2055647,0,0,-1729,-216.125
1764842195.2095733,0,0,-2016,-252.000
1764842195.2135646,1,1,356,44.500
1764842195.2176483,0,0,3704,463.000
1764842195.2215757,0,0,2,0.250
1764842195.2255633,0,0,-1705,-213.125
1764842195.2295618,0,0,-1983,-247.875
1764842195.2335505,1,1,444,55.500
1764842195.2375696,0,0,4008,501.000
1764842195.2415643,0,0,228,28.500
1764842195.245563,0,0,-1639,-204.875
1764842195.2495599,0,0,-2019,-252.375
1764842195.253552,1,1,110,13.750
1764842195.2575662,0,0,3825,478.125
1764842195.2615657,0,0,264,33.000
1764842195.265564,0,0,-1624,-203.000
1764842195.2695603,0,0,-2022,-252.750
1764842195.2735507,1,1,6,0.750
1764842195.2775645,0,0,3887,485.875
1764842195.2816014,0,0,419,52.375
1764842195.285567,0,0,-1576,-197.000
1764842195.2895582,0,0,-2021,-252.625
1764842195.2935512,1,1,-124,-15.500
1764842195.2975657,0,0,3902,487.750
1764842195.301568,0,0,566,70.750
1764842195.3055668,0,0,-1530,-191.250
1764842195.3095717,0,0,-2015,-251.875
1764842195.3135822,1,1,-220,-27.500
1764842195.3175633,0,0,3926,490.750
1764842195.3215497,0,0,727,90.875
1764842195.3255532,0,0,-1480,-185.000
1764842195.3295665,0,0,-1999,-249.875
1764842195.3335638,1,1,-228,-28.500
1764842195.337561,0,0,4048,506.000
1764842195.3415508,0,0,946,118.250
1764842195.345549,0,0,-1417,-177.125
1764842195.3495655,0,0,-1973,-246.625
1764842195.3535619,1,1,-143,-17.875
1764842195.357568,0,0,4259,532.375
1764842195.3615623,0,0,1216,152.000
1764842195.3655632,0,0,-1345,-168.125
1764842195.3695624,0,0,-2010,-251.250
1764842195.3735619,1,1,-675,-84.375
1764842195.3775644,0,0,3660,457.500
1764842195.3815625,0,0,1115,139.375
1764842195.38567,0,0,-1371,-171.375
1764842195.389613,0,0,-2009,-251.125
1764842195.3936055,1,1,-640,-80.000
1764842195.3976076,0,0,3793,474.125
1764842195.4016085,0,0,1398,174.750
1764842195.405607,0,0,-1288,-161.000
1764842195.409613,0,0,-1990,-248.750
1764842195.4136052,1,1,-656,-82.000
1764842195.4176815,0,0,1633,204.125
1764842195.4216208,0,0,-1222,-152.750
1764842195.4256124,0,0,-1973,-246.625
1764842195.4296045,0,0,-622,-77.750
1764842195.4335902,1,1,3920,490.000
1764842195.437604,0,0,1941,242.625
1764842195.441605,0,0,-1138,-142.250
1764842195.4456081,0,0,-1978,-247.250
1764842195.449602,0,0,-960,-120.000
1764842195.4535885,1,1,3448,431.000
1764842195.4576056,0,0,1924,240.500
1764842195.4616048,0,0,-1142,-142.750
1764842195.465604,0,0,-1983,-247.875
1764842195.4696136,0,0,-1027,-128.375
1764842195.4736092,1,1,3362,420.250
1764842195.477609,0,0,2154,269.250
1764842195.4816048,0,0,-1072,-134.000
1764842195.4856937,0,0,-1968,-246.000
1764842195.4895678,0,0,-1059,-132.375
1764842195.4935653,1,1,3312,414.000
1764842195.4975686,0,0,2397,299.625
1764842195.5015619,0,0,-996,-124.500
1764842195.5055618,0,0,-1958,-244.750
1764842195.5095673,0,0,-1306,-163.250
1764842195.5135648,1,1,2876,359.500
1764842195.5175688,0,0,2412,301.500
1764842195.5215778,0,0,-983,-122.875
1764842195.5255702,0,0,-1954,-244.250
1764842195.5295591,0,0,-1335,-166.875
1764842195.5335472,1,1,2806,350.750
1764842195.5375514,0,0,2652,331.500
1764842195.5415487,0,0,-897,-112.125
1764842195.5455444,0,0,-1932,-241.500
1764842195.549552,0,0,-1287,-160.875
1764842195.553547,1,1,2872,359.000
1764842195.5575655,0,0,2992,374.000
1764842195.5615637,0,0,-780,-97.500
1764842195.5655582,0,0,-1909,-238.625
1764842195.5695636,0,0,-1425,-178.125
1764842195.5735593,1,1,2573,321.625
1764842195.5775611,0,0,3086,385.750
1764842195.5815597,0,0,-733,-91.625
1764842195.585569,0,0,-1899,-237.375
1764842195.589567,0,0,-1623,-202.875
1764842195.5935595,1,1,2111,263.875
1764842195.597566,0,0,3043,380.375
1764842195.6015618,0,0,-720,-90.000
1764842195.6055627,0,0,-1894,-236.750
1764842195.6095657,0,0,-1575,-196.875
1764842195.6135561,1,1,2190,273.750
1764842195.6228912,0,0,-579,-72.375
1764842195.6255805,0,0,-1858,-232.250
1764842195.6295583,0,0,-1465,-183.125
1764842195.6335452,1,1,2386,298.250
1764842195.6375587,0,0,3813,476.625
1764842195.6415625,0,0,-409,-51.125
1764842195.6455603,0,0,-1822,-227.750
1764842195.6495574,0,0,-1789,-223.625
1764842195.653545,1,1,1544,193.000
1764842195.6575632,0,0,3417,427.125
1764842195.661565,0,0,-498,-62.250
1764842195.6655636,0,0,-1843,-230.375
1764842195.6695642,0,0,-1794,-224.250
1764842195.6735592,1,1,1497,187.125
1764842195.6775644,0,0,3642,455.250
1764842195.6815622,0,0,-370,-46.250
1764842195.685596,0,0,-1808,-226.000
1764842195.6895676,0,0,-1985,-248.125
1764842195.6935604,1,1,737,92.125
1764842195.6975648,0,0,3217,402.125
1764842195.7015584,0,0,-452,-56.500
1764842195.7055616,0,0,-1819,-227.375
1764842195.709568,0,0,-1914,-239.250
1764842195.7135823,1,1,974,121.750
1764842195.7175636,0,0,3687,460.875
1764842195.721543,0,0,-213,-26.625
1764842195.7255456,0,0,-1750,-218.750
1764842195.729564,0,0,-1850,-231.250
1764842195.7335618,1,1,1114,139.250
1764842195.7375531,0,0,4061,507.625
1764842195.7415407,0,0,-1,-0.125
1764842195.7455423,0,0,-1692,-211.500
1764842195.7495675,0,0,-1923,-240.375
1764842195.7535605,1,1,750,93.750
1764842195.7575629,0,0,3941,492.625
1764842195.7615573,0,0,39,4.875
1764842195.7655578,0,0,-1681,-210.125
1764842195.7695634,0,0,-1939,-242.375
1764842195.7735598,1,1,627,78.375
1764842195.7775633,0,0,4034,504.250
1764842195.7815547,0,0,171,21.375
1764842195.785555,0,0,-1644,-205.500
1764842195.789552,0,0,-1938,-242.250
1764842195.793546,1,1,556,69.500
1764842195.7975574,0,0,4165,520.625
1764842195.8015559,0,0,328,41.000
1764842195.8055575,0,0,-1602,-200.250
1764842195.8095598,0,0,-1938,-242.250
1764842195.8135579,1,1,486,60.750
1764842195.8175635,0,0,4243,530.375
1764842195.821631,0,0,440,55.000
1764842195.8255677,0,0,-1574,-196.750
1764842195.8295536,0,0,-2054,-256.750
1764842195.8335447,1,1,-366,-45.750
1764842195.8375568,0,0,3438,429.750
1764842195.8415596,0,0,228,28.500
1764842195.8455558,0,0,-1622,-202.750
1764842195.8495512,0,0,-2071,-258.875
1764842195.853541,1,1,-615,-76.875
1764842195.8575592,0,0,3292,411.500
1764842195.8615613,0,0,336,42.000
1764842195.8655596,0,0,-1577,-197.125
1764842195.869547,0,0,-1980,-247.500
1764842195.8735423,1,1,25,3.125
1764842195.8775597,0,0,4249,531.125
1764842195.8815603,0,0,912,114.000
1764842195.8855605,0,0,-1412,-176.500
1764842195.8895624,0,0,-1968,-246.000
1764842195.8935568,1,1,-181,-22.625
1764842195.8975642,0,0,4120,515.000
1764842195.9015603,0,0,1018,127.250
1764842195.9055588,0,0,-1385,-173.125
1764842195.9095602,0,0,-1996,-249.500
1764842195.9135566,1,1,-508,-63.500
1764842195.91756,0,0,3812,476.500
1764842195.921557,0,0,1052,131.500
1764842195.9255621,0,0,-1374,-171.750
1764842195.9295645,0,0,-1971,-246.375
1764842195.9335651,1,1,-322,-40.250
1764842195.9375563,0,0,4148,518.500
1764842195.9415426,0,0,1412,176.500
1764842195.9455445,0,0,-1274,-159.250
1764842195.9495647,0,0,-1980,-247.500
1764842195.9535573,1,1,-647,-80.875
1764842195.9575517,0,0,3785,473.125
1764842195.9615397,0,0,1431,178.875
1764842195.9655435,0,0,-1271,-158.875
1764842195.9695647,0,0,-1980,-247.500
1764842195.9735575,1,1,-672,-84.000
1764842195.9776611,0,0,3810,476.250
1764842195.9818919,0,0,1668,208.500
1764842195.9856188,0,0,-1205,-150.625
1764842195.9895673,0,0,-1980,-247.500
1764842195.993557,1,1,-886,-110.750
1764842195.9975567,0,0,3537,442.125
1764842196.0015533,0,0,1768,221.000
1764842196.0055525,0,0,-1175,-146.875
1764842196.0095558,0,0,-1977,-247.125
1764842196.013556,1,1,-965,-120.625
1764842196.0175548,0,0,3443,430.375
1764842196.0216248,0,0,1955,244.375
1764842196.025567,0,0,-1119,-139.875
1764842196.0295525,0,0,-1971,-246.375
1764842196.033541,1,1,-1203,-150.375
1764842196.0375485,0,0,3060,382.500
1764842196.041539,0,0,2004,250.500
1764842196.0455358,0,0,-1099,-137.375
1764842196.049543,0,0,-1309,-163.625
1764842196.0535417,1,1,2866,358.250
1764842196.057558,0,0,2146,268.250
1764842196.0615554,0,0,-1046,-130.750
1764842196.0655549,0,0,-1951,-243.875
1764842196.0695593,0,0,-1436,-179.500
1764842196.073557,1,1,2607,325.875
1764842196.0775638,0,0,2280,285.000
1764842196.0815544,0,0,-992,-124.000
1764842196.0855534,0,0,-1933,-241.625
1764842196.0895975,0,0,-1434,-179.250
1764842196.0935545,1,1,2585,323.125
1764842196.0975616,0,0,2571,321.375
1764842196.1015558,0,0,-888,-111.000
1764842196.1055517,0,0,-1903,-237.875
1764842196.109558,0,0,-1426,-178.250
1764842196.1135545,1,1,2570,321.250
1764842196.1175592,0,0,2846,355.750
1764842196.1215549,0,0,-787,-98.375
1764842196.1255648,0,0,-1879,-234.875
1764842196.1295524,0,0,-1566,-195.750
1764842196.1335387,1,1,2227,278.375
1764842196.1375544,0,0,2901,362.625
1764842196.1415575,0,0,-748,-93.500
1764842196.1455562,0,0,-1867,-233.375
1764842196.1495495,0,0,-1637,-204.625
1764842196.1535401,1,1,2019,252.375
1764842196.157553,0,0,3035,379.375
1764842196.161555,0,0,-677,-84.625
1764842196.1655557,0,0,-1846,-230.750
1764842196.1695576,0,0,-1564,-195.500
1764842196.173551,1,1,2153,269.125
1764842196.177556,0,0,3422,427.750
1764842196.1815557,0,0,-523,-65.375
1764842196.1855545,0,0,-1808,-226.000
1764842196.1895454,0,0,-1684,-210.500
1764842196.193536,1,1,1798,224.750
1764842196.197552,0,0,3424,428.000
1764842196.2015562,0,0,-486,-60.750
1764842196.2055538,0,0,-1799,-224.875
1764842196.2095585,0,0,-1701,-212.625
1764842196.2135508,1,1,1713,214.125
1764842196.2175567,0,0,3618,452.250
1764842196.2216249,0,0,-380,-47.500
1764842196.2255661,0,0,-1773,-221.625
1764842196.229552,0,0,-1790,-223.750
1764842196.2335374,1,1,1400,175.000
1764842196.2375495,0,0,3627,453.375
1764842196.2415519,0,0,-323,-40.375
1764842196.245555,0,0,-1757,-219.625
1764842196.249549,0,0,-1837,-229.625
1764842196.253537,1,1,1192,149.000
1764842196.2575545,0,0,3696,462.000
1764842196.261552,0,0,-239,-29.875
1764842196.265555,0,0,-1734,-216.750
1764842196.2695565,0,0,-1821,-227.625
1764842196.273553,1,1,1192,149.000
1764842196.277555,0,0,3943,492.875
1764842196.2815514,0,0,-84,-10.500
1764842196.285553,0,0,-1693,-211.625
1764842196.2895849,0,0,-1856,-232.000
1764842196.2935414,1,1,1001,125.125
1764842196.297553,0,0,4001,500.125
1764842196.301552,0,0,11,1.375
1764842196.305551,0,0,-1669,-208.625
1764842196.3095582,0,0,-1893,-236.625
1764842196.3135564,1,1,799,99.875
1764842196.3175566,0,0,4025,503.125
1764842196.3215523,0,0,102,12.750
1764842196.3255563,0,0,-1645,-205.625
1764842196.3295496,0,0,-1940,-242.500
1764842196.3335397,1,1,530,66.250
1764842196.3375523,0,0,3977,497.125
1764842196.34155,0,0,183,22.875
1764842196.3455503,0,0,-1622,-202.750
1764842196.3495436,0,0,-1921,-240.125
1764842196.3535395,1,1,551,68.875
1764842196.3575547,0,0,4188,523.500
1764842196.3615513,0,0,366,45.750
1764842196.3655505,0,0,-1573,-196.625
1764842196.3695548,0,0,-1989,-248.625
1764842196.3735495,1,1,82,10.250
1764842196.377554,0,0,3869,483.625
1764842196.3815525,0,0,359,44.875
1764842196.385548,0,0,-1572,-196.500
1764842196.389588,0,0,-1958,-244.750
1764842196.3935487,1,1,226,28.250
1764842196.3975573,0,0,4202,525.250
1764842196.4015503,0,0,623,77.875
1764842196.4055464,0,0,-1499,-187.375
1764842196.4095552,0,0,-1967,-245.875
1764842196.413548,1,1,42,5.250
1764842196.4175494,0,0,4152,519.000
1764842196.421622,0,0,749,93.625
1764842196.4255672,0,0,-1464,-183.000
1764842196.42955,0,0,-1965,-245.625
1764842196.433534,1,1,-15,-1.875
1764842196.4375503,0,0,4224,528.000
1764842196.4415522,0,0,931,116.375
1764842196.4455519,0,0,-1416,-177.000
1764842196.4495418,0,0,-1974,-246.750
1764842196.4535322,1,1,-174,-21.750
1764842196.457553,0,0,4154,519.250
1764842196.4615524,0,0,1066,133.250
1764842196.465551,0,0,-1381,-172.625
1764842196.4695568,0,0,-1983,-247.875
1764842196.4735477,1,1,-318,-39.750
1764842196.4775534,0,0,4076,509.500
1764842196.48155,0,0,1194,149.250
1764842196.4855542,0,0,-1347,-168.375
1764842196.4895945,0,0,-2009,-251.125
1764842196.4935496,1,1,-694,-86.750
1764842196.497553,0,0,3667,458.375
1764842196.5015514,0,0,1217,152.125
1764842196.5055523,0,0,-1339,-167.375
1764842196.5095546,0,0,-1972,-246.500
1764842196.5135481,1,1,-335,-41.875
1764842196.5175524,0,0,4222,527.750
1764842196.521549,0,0,1713,214.125
1764842196.5255477,0,0,-1200,-150.000
1764842196.5295544,0,0,-1980,-247.500
1764842196.5335498,1,1,-755,-94.375
1764842196.5375435,0,0,3703,462.875
1764842196.5415354,0,0,1691,211.375
1764842196.5455415,0,0,-1211,-151.375
1764842196.5495448,0,0,-1978,-247.250
1764842196.5535376,1,1,-675,-84.375
1764842196.557547,0,0,3858,482.250
1764842196.5615478,0,0,2039,254.875
1764842196.565549,0,0,-1112,-139.000
1764842196.5695455,0,0,-1968,-246.000
1764842196.5735345,1,1,-805,-100.625
1764842196.5775495,0,0,3692,461.500
1764842196.5815473,0,0,2220,277.500
1764842196.5855455,0,0,-1062,-132.750
1764842196.5895526,0,0,-1947,-243.375
1764842196.593565,1,1,-600,-75.000
1764842196.5975556,0,0,3990,498.750
1764842196.6015456,0,0,2727,340.875
1764842196.6055446,0,0,-917,-114.625
1764842196.6095545,0,0,-1867,-233.375
1764842196.6135478,1,1,-85,-10.625
1764842196.617551,0,0,4644,580.500
1764842196.626883,0,0,-1905,-238.125
1764842196.6295738,0,0,-1905,-238.125
1764842196.6335526,1,1,-546,-68.250
1764842196.6375465,0,0,4076,509.500
1764842196.641532,0,0,3183,397.875
1764842196.645531,0,0,-820,-102.500
1764842196.6495497,0,0,-1978,-247.250
1764842196.6535482,1,1,-1594,-199.250
1764842196.6575441,0,0,2317,289.625
1764842196.661535,0,0,2495,311.875
1764842196.6655285,0,0,-1002,-125.250
1764842196.6695523,0,0,-652,-81.500
1764842196.6735473,1,1,3907,488.375
1764842196.6775532,0,0,3799,474.875
1764842196.681548,0,0,-595,-74.375
1764842196.685549,0,0,-1920,-240.000
1764842196.689552,0,0,-942,-117.750
1764842196.6935482,1,1,3439,429.875
1764842196.6975543,0,0,3829,478.625
1764842196.7015495,0,0,-573,-71.625
1764842196.7055488,0,0,-1929,-241.125
1764842196.7095487,0,0,-918,-114.750
1764842196.7135446,1,1,3456,432.000
1764842196.7175531,0,0,4100,512.500
1764842196.7215476,0,0,-479,-59.875
1764842196.7255476,0,0,-1933,-241.625
1764842196.7295492,0,0,-1177,-147.125
1764842196.7335644,1,1,3020,377.500
1764842196.7375484,0,0,4119,514.875
1764842196.7415347,0,0,-445,-55.625
1764842196.7455332,0,0,-1932,-241.500
1764842196.7495503,0,0,-999,-124.875
1764842196.7535455,1,1,3285,410.625
1764842196.7575433,0,0,4554,569.250
1764842196.7615309,0,0,-279,-34.875
1764842196.7655306,0,0,-1922,-240.250
1764842196.76955,0,0,-1467,-183.375
1764842196.773545,1,1,2446,305.750
1764842196.7775466,0,0,4251,531.375
1764842196.7815418,0,0,-335,-41.875
1764842196.7855442,0,0,-1943,-242.875
1764842196.789541,0,0,-1320,-165.000
1764842196.7935276,1,1,2708,338.500
1764842196.7975464,0,0,4697,587.125
1764842196.801544,0,0,-137,-17.125
1764842196.8055432,0,0,-1909,-238.625
1764842196.809551,0,0,-1406,-175.750
1764842196.8135462,1,1,2517,314.625
1764842196.817548,0,0,4810,601.250
1764842196.8215408,0,0,-42,-5.250
1764842196.8256106,0,0,-1901,-237.625
1764842196.8295553,0,0,-1547,-193.375
1764842196.8335314,1,1,2214,276.750
1764842196.8375466,0,0,4814,601.750
1764842196.8415432,0,0,23,2.875
1764842196.8455467,0,0,-1899,-237.375
1764842196.849541,0,0,-1660,-207.500
1764842196.8535314,1,1,1951,243.875
1764842196.857548,0,0,4842,605.250
1764842196.8615463,0,0,112,14.000
1764842196.865542,0,0,-1887,-235.875
1764842196.8695495,0,0,-1751,-218.875
1764842196.8735442,1,1,1710,213.750
1764842196.8775508,0,0,4874,609.250
1764842196.881542,0,0,222,27.750
1764842196.8855412,0,0,-1867,-233.375
1764842196.8895478,0,0,-1725,-215.625
1764842196.8935835,1,1,1739,217.375
1764842196.8975503,0,0,5117,639.625
1764842196.9015403,0,0,425,53.125
1764842196.9055421,0,0,-1825,-228.125
1764842196.9095354,0,0,-1719,-214.875
1764842196.913529,1,1,1725,215.625
1764842196.91755,0,0,5302,662.750
1764842196.921545,0,0,615,76.875
1764842196.9255464,0,0,-1791,-223.875
1764842196.9295495,0,0,-1651,-206.375
1764842196.9335442,1,1,1852,231.500
1764842196.9375494,0,0,5573,696.625
1764842196.9415438,0,0,843,105.375
1764842196.9455497,0,0,-1750,-218.750
1764842196.9495387,0,0,-1839,-229.875
1764842196.9535248,1,1,1364,170.500
1764842196.9575317,0,0,5344,668.000
1764842196.9615278,0,0,918,114.750
1764842196.9655285,0,0,-1744,-218.000
1764842196.9695382,0,0,-1663,-207.875
1764842196.9735365,1,1,1788,223.500
1764842196.9776342,0,0,5811,726.375
1764842196.9819067,0,0,1223,152.875
1764842196.9856083,0,0,-1686,-210.750
1764842196.9895515,0,0,-1961,-245.125
1764842196.9935389,1,1,981,122.625
1764842196.997588,0,0,5267,658.375
1764842197.0015395,0,0,1184,148.000
1764842197.005542,0,0,-1710,-213.750
1764842197.00954,0,0,-2091,-261.375
1764842197.0135362,1,1,518,64.750
1764842197.0175414,0,0,4942,617.750
1764842197.021542,0,0,1243,155.375
1764842197.0256112,0,0,-1698,-212.250
1764842197.029555,0,0,-1892,-236.500
1764842197.033528,1,1,1184,148.000
1764842197.037732,0,0,5654,706.750
1764842197.0415318,0,0,1797,224.625
1764842197.045529,0,0,-1566,-195.750
1764842197.0495348,0,0,-1867,-233.375
1764842197.0535247,1,1,1207,150.875
1764842197.0575306,0,0,5728,716.000
1764842197.0615273,0,0,2035,254.375
1764842197.0655274,0,0,-1524,-190.500
1764842197.0695293,0,0,-1990,-248.750
1764842197.0735264,1,1,835,104.375
1764842197.0775275,0,0,5454,681.750
1764842197.081523,0,0,2150,268.750
1764842197.0855234,0,0,-1513,-189.125
1764842197.0895445,0,0,-2100,-262.500
1764842197.0935435,1,1,442,55.250
1764842197.0975814,0,0,5130,641.250
1764842197.1015434,0,0,2281,285.125
1764842197.1055427,0,0,-1488,-186.000
1764842197.109537,0,0,-2080,-260.000
1764842197.1135263,1,1,524,65.500
1764842197.1175427,0,0,5238,654.750
1764842197.1215386,0,0,2595,324.375
1764842197.125538,0,0,-1413,-176.625
1764842197.1295373,0,0,-2115,-264.375
1764842197.1335273,1,1,369,46.125
1764842197.1375406,0,0,5096,637.000
1764842197.1415424,0,0,2868,358.500
1764842197.1455393,0,0,-1344,-168.000
1764842197.1495447,0,0,-2058,-257.250
1764842197.1535442,1,1,586,73.250
1764842197.157548,0,0,5298,662.250
1764842197.1615412,0,0,3214,401.750
1764842197.165542,0,0,-1260,-157.500
1764842197.1695442,0,0,-2162,-270.250
1764842197.1735437,1,1,129,16.125
1764842197.1775467,0,0,4849,606.125
1764842197.1815412,0,0,3288,411.000
1764842197.1855402,0,0,-1243,-155.375
1764842197.1895452,0,0,-2182,-272.750
1764842197.193542,1,1,48,6.000
1764842197.1975803,0,0,4756,594.500
1764842197.201543,0,0,3534,441.750
1764842197.2055402,0,0,-1170,-146.250
1764842197.2095442,0,0,-2233,-279.125
1764842197.2135413,1,1,-294,-36.750
1764842197.2175455,0,0,4381,547.625
1764842197.2215433,0,0,3657,457.125
1764842197.2256112,0,0,-1120,-140.000
1764842197.2295492,0,0,-2225,-278.125
1764842197.2335262,1,1,-245,-30.625
1764842197.237546,0,0,4407,550.875
1764842197.2415428,0,0,3934,491.750
1764842197.2455406,0,0,-1027,-128.375
1764842197.249533,0,0,-2270,-283.750
1764842197.253524,1,1,-755,-94.375
1764842197.2575405,0,0,3786,473.250
1764842197.2615407,0,0,3908,488.500
1764842197.2655406,0,0,-1001,-125.125
1764842197.2695434,0,0,-2237,-279.625
1764842197.2735386,1,1,-397,-49.625
1764842197.277537,0,0,4183,522.875
1764842197.281539,0,0,4472,559.000
1764842197.2855422,0,0,-788,-98.500
1764842197.2895298,0,0,-63,-7.875
1764842197.2935274,1,1,4509,563.625
1764842197.2975302,0,0,4926,615.750
1764842197.3015628,0,0,-620,-77.500
1764842197.305527,0,0,-2148,-268.500
1764842197.30954,0,0,-30,-3.750
1764842197.313523,1,1,4511,563.875
1764842197.317528,0,0,5158,644.750
1764842197.321524,0,0,-529,-66.125
1764842197.325523,0,0,-2228,-278.500
1764842197.3295443,0,0,-635,-79.375
1764842197.3335383,1,1,3808,476.000
1764842197.3375432,0,0,5032,629.000
1764842197.3415377,0,0,-520,-65.000
1764842197.3455408,0,0,-2252,-281.500
1764842197.349543,0,0,-850,-106.250
1764842197.3535402,1,1,3518,439.750
1764842197.3575425,0,0,5142,642.750
1764842197.3615372,0,0,-408,-51.000
1764842197.3655398,0,0,-2236,-279.500
1764842197.3695447,0,0,-767,-95.875
1764842197.373543,1,1,3607,450.875
1764842197.3775399,0,0,5320,665.000
1764842197.3815355,0,0,-337,-42.125
1764842197.385536,0,0,-2251,-281.375
1764842197.3895445,0,0,-1838,-229.750
1764842197.3935394,1,1,1855,231.875
1764842197.397543,0,0,4462,557.750
1764842197.4015687,0,0,-493,-61.625
1764842197.40554,0,0,-2270,-283.750
1764842197.4095473,0,0,-1437,-179.625
1764842197.413538,1,1,2593,324.125
1764842197.4175425,0,0,5255,656.875
1764842197.4215379,0,0,-81,-10.125
1764842197.4256136,0,0,-2203,-275.375
1764842197.4295578,0,0,-1093,-136.625
1764842197.433526,1,1,3077,384.625
1764842197.4375396,0,0,5742,717.750
1764842197.4415376,0,0,169,21.125
1764842197.445537,0,0,-2179,-272.375
1764842197.44953,0,0,-1542,-192.750
1764842197.4535232,1,1,2343,292.875
1764842197.4575396,0,0,5491,686.375
1764842197.4615371,0,0,238,29.750
1764842197.4655356,0,0,-2165,-270.625
1764842197.4695292,0,0,-1276,-159.500
1764842197.4735215,1,1,2758,344.750
1764842197.477534,0,0,5914,739.250
1764842197.4815373,0,0,479,59.875
1764842197.4855363,0,0,-2135,-266.875
1764842197.4895396,0,0,-1823,-227.875
1764842197.493533,1,1,1733,216.625
1764842197.497541,0,0,5375,671.875
1764842197.5015428,0,0,451,56.375
1764842197.505548,0,0,-2140,-267.500
1764842197.5095327,0,0,-1768,-221.000
1764842197.5135193,1,1,1834,229.250
1764842197.5175319,0,0,5602,700.250
1764842197.5215354,0,0,705,88.125
1764842197.5255365,0,0,-2097,-262.125
1764842197.529528,0,0,-1853,-231.625
1764842197.533517,1,1,1618,202.250
1764842197.5375247,0,0,5590,698.750
1764842197.5415223,0,0,913,114.125
1764842197.5455217,0,0,-2055,-256.875
1764842197.5495427,0,0,-1628,-203.500
1764842197.5535355,1,1,2071,258.875
1764842197.5575407,0,0,6030,753.750
1764842197.5615382,0,0,1246,155.750
1764842197.5655372,0,0,-1994,-249.250
1764842197.5695431,0,0,-2035,-254.375
1764842197.5735352,1,1,1091,136.375
1764842197.5775404,0,0,5372,671.500
1764842197.5815372,0,0,1161,145.125
1764842197.5855358,0,0,-2012,-251.500
1764842197.589541,0,0,-2215,-276.875
1764842197.5935345,1,1,374,46.750
1764842197.5975375,0,0,4852,606.500
1764842197.6015341,0,0,1232,154.000
1764842197.6055725,0,0,-1986,-248.250
1764842197.6095426,0,0,-2084,-260.500
1764842197.6135364,1,1,903,112.875
1764842197.6175368,0,0,5389,673.625
1764842197.6215353,0,0,1691,211.375
1764842197.6308706,0,0,-2228,-278.500
1764842197.633558,1,1,294,36.750
1764842197.6375432,0,0,4900,612.500
1764842197.6415205,0,0,1772,221.500
1764842197.6455202,0,0,-1853,-231.625
1764842197.64954,0,0,-2187,-273.375
1764842197.6535378,1,1,476,59.500
1764842197.65753,0,0,5100,637.500
1764842197.661517,0,0,2094,261.750
1764842197.6655161,0,0,-1769,-221.125
1764842197.6695423,0,0,-2308,-288.500
1764842197.6735368,1,1,-296,-37.000
1764842197.677539,0,0,4372,546.500
1764842197.681533,0,0,2106,263.250
1764842197.6855333,0,0,-1747,-218.375
1764842197.68954,0,0,-2227,-278.375
1764842197.6935334,1,1,246,30.750
1764842197.6975381,0,0,4937,617.125
1764842197.7015321,0,0,2701,337.625
1764842197.7055686,0,0,-1580,-197.500
1764842197.709534,0,0,-2189,-273.625
1764842197.7135344,1,1,394,49.250
1764842197.71754,0,0,5074,634.250
1764842197.7215319,0,0,3025,378.125
1764842197.7255304,0,0,-1492,-186.500
1764842197.729539,0,0,-2286,-285.750
1764842197.7335336,1,1,-187,-23.375
1764842197.737538,0,0,4503,562.875
1764842197.7415335,0,0,3052,381.500
1764842197.7455304,0,0,-1471,-183.875
1764842197.7495344,0,0,-2310,-288.750
1764842197.7535346,1,1,-401,-50.125
1764842197.7575383,0,0,4263,532.875
1764842197.7615328,0,0,3230,403.750
1764842197.7655356,0,0,-1398,-174.750
1764842197.7695358,0,0,-2324,-290.500
1764842197.7735293,1,1,-653,-81.625
1764842197.7775366,0,0,3957,494.625
1764842197.781535,0,0,3354,419.250
1764842197.785534,0,0,-1335,-166.875
1764842197.7895212,0,0,-2334,-291.750
1764842197.793521,1,1,-999,-124.875
1764842197.7975237,0,0,3505,438.125
1764842197.8015172,0,0,3484,435.500
1764842197.8055923,0,0,-1245,-155.625
1764842197.8095782,0,0,-2298,-287.250
1764842197.8135777,1,1,-479,-59.875
1764842197.8175716,0,0,4115,514.375
1764842197.8215604,0,0,4150,518.750
1764842197.8255594,0,0,-1004,-125.500
1764842197.8296633,0,0,-2282,-285.250
1764842197.8335903,1,1,-522,-65.250
1764842197.837574,0,0,4033,504.125
1764842197.8415568,0,0,4334,541.750
1764842197.84556,0,0,-927,-115.875
1764842197.8495831,0,0,-2310,-288.750
1764842197.8535755,1,1,-1199,-149.875
1764842197.8575695,0,0,3133,391.625
1764842197.8615615,0,0,4100,512.500
1764842197.8655608,0,0,-942,-117.750
1764842197.8695822,0,0,-2310,-288.750
1764842197.873577,1,1,-1194,-149.250
1764842197.877579,0,0,3116,389.500
1764842197.881572,0,0,4383,547.875
1764842197.885575,0,0,-786,-98.250
1764842197.8895822,0,0,-2294,-286.750
1764842197.8935776,1,1,-1224,-153.000
1764842197.8975782,0,0,3036,379.500
1764842197.9015734,0,0,4609,576.125
1764842197.9055755,0,0,-2278,-284.750
1764842197.909545,0,0,-1298,-162.250
1764842197.913533,1,1,2889,361.125
1764842197.9175348,0,0,4821,602.625
1764842197.9215276,0,0,-465,-58.125
1764842197.9255266,0,0,-2230,-278.750
1764842197.9295366,0,0,-771,-96.375
1764842197.9335337,1,1,3597,449.625
1764842197.937531,0,0,5446,680.750
1764842197.9415166,0,0,-215,-26.875
1764842197.9455135,0,0,-2228,-278.500
1764842197.9495199,0,0,-1720,-215.000
1764842197.9535158,1,1,2101,262.625
1764842197.9575229,0,0,4697,587.125
1764842197.961515,0,0,-373,-46.625
1764842197.9655123,0,0,-2246,-280.750
1764842197.9695354,0,0,-1856,-232.000
1764842197.973533,1,1,1781,222.625
1764842197.9776235,0,0,4682,585.250
1764842197.9818819,0,0,-253,-31.625
1764842197.9855998,0,0,-2218,-277.250
1764842197.9895415,0,0,-1982,-247.750
1764842197.9935296,1,1,1440,180.000
1764842197.9975338,0,0,4667,583.375
1764842198.0015311,0,0,-81,-10.125
1764842198.0055273,0,0,-2167,-270.875
1764842198.009531,0,0,-1883,-235.375
1764842198.0135329,1,1,1637,204.625
1764842198.0175319,0,0,4992,624.000
1764842198.0215323,0,0,108,13.500
1764842198.0255296,0,0,-2153,-269.125
1764842198.0296082,0,0,-1845,-230.625
1764842198.0335424,1,1,1692,211.500
1764842198.037532,0,0,5222,652.750
1764842198.0415165,0,0,323,40.375
1764842198.0455158,0,0,-2112,-264.000
1764842198.0495358,0,0,-2092,-261.500
1764842198.053529,1,1,956,119.500
1764842198.0575283,0,0,4830,603.750
1764842198.061517,0,0,374,46.750
1764842198.0655167,0,0,-2098,-262.250
1764842198.069532,0,0,-2021,-252.625
1764842198.0735307,1,1,1156,144.500
1764842198.077534,0,0,5164,645.500
1764842198.0815284,0,0,699,87.375
1764842198.0855312,0,0,-2020,-252.500
1764842198.089532,0,0,-1852,-231.500
1764842198.0935256,1,1,1562,195.250
1764842198.0975318,0,0,5627,703.375
1764842198.1015315,0,0,1071,133.875
1764842198.1055288,0,0,-1943,-242.875
1764842198.109573,0,0,-1990,-248.750
1764842198.1135252,1,1,1173,146.625
1764842198.1175323,0,0,5434,679.250
1764842198.1215303,0,0,1196,149.500
1764842198.125529,0,0,-1920,-240.000
1764842198.129534,0,0,-1826,-228.250
1764842198.133526,1,1,1592,199.000
1764842198.1375299,0,0,5852,731.500
1764842198.141528,0,0,1503,187.875
1764842198.1455295,0,0,-1860,-232.500
1764842198.1495352,0,0,-2148,-268.500
1764842198.1535273,1,1,650,81.250
1764842198.1575317,0,0,5153,644.125
1764842198.1615264,0,0,1456,182.000
1764842198.1655307,0,0,-1873,-234.125
1764842198.1695335,0,0,-2130,-266.250
1764842198.1735268,1,1,698,87.250
1764842198.1775293,0,0,5263,657.875
1764842198.1815264,0,0,1790,223.750
1764842198.1855278,0,0,-1788,-223.500
1764842198.1895308,0,0,-2044,-255.500
1764842198.1935499,1,1,957,119.625
1764842198.197525,0,0,5523,690.375
1764842198.2015107,0,0,2037,254.625
1764842198.2055104,0,0,-1735,-216.875
1764842198.2095635,0,0,-2346,-293.250
1764842198.2135282,1,1,-1005,-125.625
1764842198.217525,0,0,3512,439.000
1764842198.221512,0,0,1446,180.750
1764842198.2255096,0,0,-1852,-231.500
1764842198.2296143,0,0,-2296,-287.000
1764842198.233544,1,1,-231,-28.875
1764842198.2375283,0,0,4465,558.125
1764842198.2415106,0,0,2258,282.250
1764842198.2455127,0,0,-1621,-202.625
1764842198.249532,0,0,-2292,-286.500
1764842198.2535293,1,1,-336,-42.000
1764842198.257525,0,0,4360,545.000
1764842198.2615116,0,0,2528,316.000
1764842198.2655108,0,0,-1533,-191.625
1764842198.269514,0,0,-2288,-286.000
1764842198.2735138,1,1,-366,-45.750
1764842198.2775276,0,0,4331,541.375
1764842198.2815282,0,0,2818,352.250
1764842198.2855241,0,0,-1438,-179.750
1764842198.2895186,0,0,-2276,-284.500
1764842198.2935116,1,1,-345,-43.125
1764842198.297527,0,0,4345,543.125
1764842198.301533,0,0,3142,392.750
1764842198.3055294,0,0,-1326,-165.750
1764842198.3095553,0,0,-2291,-286.375
1764842198.3135092,1,1,-584,-73.000
1764842198.3175268,0,0,4054,506.750
1764842198.3215292,0,0,3252,406.500
1764842198.3255265,0,0,-1284,-160.500
1764842198.3295221,0,0,-2313,-289.125
1764842198.3335085,1,1,-990,-123.750
1764842198.3375232,0,0,3533,441.625
1764842198.341531,0,0,3272,409.000
1764842198.3455281,0,0,-1247,-155.875
1764842198.3495312,0,0,-2310,-288.750
1764842198.3535268,1,1,-1056,-132.000
1764842198.3575335,0,0,3414,426.750
1764842198.3615286,0,0,3507,438.375
1764842198.365529,0,0,-1139,-142.375
1764842198.3695316,0,0,-2303,-287.875
1764842198.3735247,1,1,-1322,-165.250
1764842198.3775291,0,0,2993,374.125
1764842198.3815272,0,0,3559,444.875
1764842198.3855276,0,0,-1073,-134.125
1764842198.3895302,0,0,-2291,-286.375
1764842198.3935254,1,1,-1236,-154.500
1764842198.3975298,0,0,3091,386.375
1764842198.4015276,0,0,3893,486.625
1764842198.405527,0,0,-924,-115.500
1764842198.4095442,0,0,-2276,-284.500
1764842198.4135275,1,1,-1600,-200.000
1764842198.4175286,0,0,2447,305.875
1764842198.4215226,0,0,3797,474.625
1764842198.4255254,0,0,-882,-110.250
1764842198.429625,0,0,-2261,-282.625
1764842198.4335403,1,1,-1338,-167.250
1764842198.4375243,0,0,2866,358.250
1764842198.4415073,0,0,4367,545.875
1764842198.4455118,0,0,-634,-79.250
1764842198.4495318,0,0,-2224,-278.000
1764842198.4535263,1,1,-1345,-168.125
1764842198.4575176,0,0,2821,352.625
1764842198.4615097,0,0,4623,577.875
1764842198.4655101,0,0,-481,-60.125
1764842198.469529,0,0,-2183,-272.875
1764842198.4735258,1,1,-942,-117.750
1764842198.477528,0,0,3400,425.000
1764842198.4815233,0,0,5236,654.500
1764842198.485521,0,0,-218,-27.250
1764842198.4895182,0,0,-2167,-270.875
1764842198.493509,1,1,-1547,-193.375
1764842198.4975247,0,0,2434,304.250
1764842198.5015213,0,0,4801,600.125
1764842198.505524,0,0,-306,-38.250
1764842198.5095348,0,0,-2185,-273.125
1764842198.5135634,1,1,-2062,-257.750
1764842198.5175295,0,0,1209,151.125
1764842198.5215223,0,0,4095,511.875
1764842198.5255227,0,0,-450,-56.250
1764842198.529528,0,0,-2134,-266.750
1764842198.533522,1,1,919,114.875
1764842198.5375192,0,0,4069,508.625
1764842198.5415068,0,0,-342,-42.750
1764842198.545504,0,0,-2165,-270.625
1764842198.5495245,0,0,-2239,-279.875
1764842198.5535214,0,1,389,48.625
1764842198.5575283,0,0,3786,473.250
1764842198.5615244,0,0,-319,-39.875
1764842198.5655203,0,0,-2140,-267.500
1764842198.5695262,0,0,-2263,-282.875
1764842198.5735238,0,0,174,21.750
1764842198.577526,0,0,3757,469.625
1764842198.5815258,0,0,-202,-25.250
1764842198.5855289,0,0,-2093,-261.625
1764842198.5895164,0,0,-2318,-289.750
1764842198.5935075,0,0,-450,-56.250
1764842198.59752,0,0,3260,407.500
1764842198.6015215,0,0,-237,-29.625
1764842198.605525,0,0,-2070,-258.750
1764842198.609513,0,0,-2294,-286.750
1764842198.613559,0,1,-340,-42.500
1764842198.6175673,0,0,3578,447.250
1764842198.621569,0,0,67,8.375
1764842198.6255674,0,0,-1973,-246.625
1764842198.636132,1,1,323,40.375
1764842198.6380336,0,0,4429,553.625
1764842198.641572,0,0,552,69.000
1764842198.6455686,0,0,-1841,-230.125
1764842198.6495636,0,0,-2284,-285.500
1764842198.6535485,0,0,-784,-98.000
1764842198.6575644,0,0,3290,411.250
1764842198.6615674,0,0,239,29.875
1764842198.6655672,0,0,-1893,-236.625
1764842198.6695623,0,0,-2285,-285.625
1764842198.6735473,0,0,-982,-122.750
1764842198.677566,0,0,3141,392.625
1764842198.681567,0,0,383,47.875
1764842198.6855667,0,0,-1824,-228.000
1764842198.6895745,0,0,-2256,-282.000
1764842198.6935635,0,0,-898,-112.250
1764842198.6975684,0,0,3371,421.375
1764842198.7015648,0,0,699,87.375
1764842198.705566,0,0,-1715,-214.375
1764842198.7095687,0,0,-2226,-278.250
1764842198.7136767,1,1,-903,-112.875
1764842198.7175257,0,0,3447,430.875
1764842198.7215052,0,0,980,122.500
1764842198.7255063,0,0,-1615,-201.875
1764842198.729524,0,0,-2195,-274.375
1764842198.7335224,0,0,-820,-102.500
1764842198.7375152,1,1,3635,454.375
1764842198.741501,0,0,1342,167.750
1764842198.7455018,0,0,-1501,-187.625
1764842198.7495272,0,0,-2145,-268.125
1764842198.7535243,0,0,-514,-64.250
1764842198.7575257,1,1,4077,509.625
1764842198.7616851,0,0,1765,220.625
1764842198.7655778,0,0,-1378,-172.250
1764842198.7695177,0,0,-2166,-270.750
1764842198.773507,0,0,-1280,-160.000
1764842198.7775037,1,1,2998,374.750
1764842198.7815,0,0,1466,183.250
1764842198.7855015,0,0,-1448,-181.000
1764842198.789507,0,0,-2161,-270.125
1764842198.7935042,0,0,-1030,-128.750
1764842198.7975183,1,1,3425,428.125
1764842198.8015168,0,0,1956,244.500
1764842198.8055162,0,0,-1294,-161.750
1764842198.809524,0,0,-2138,-267.250
1764842198.8135974,0,0,-1431,-178.875
1764842198.817573,1,0,2747,343.375
1764842198.8215597,0,0,1842,230.250
1764842198.8255594,0,0,-1308,-163.500
1764842198.829567,0,0,-2132,-266.500
1764842198.8336425,0,0,-1434,-179.250
1764842198.8375735,1,1,2739,342.375
1764842198.8415458,0,0,2121,265.125
1764842198.8455403,0,0,-1205,-150.625
1764842198.8495665,0,0,-2101,-262.625
1764842198.8535614,0,0,-1594,-199.250
1764842198.8575602,1,1,2391,298.875
1764842198.8615432,0,0,2193,274.125
1764842198.865541,0,0,-1156,-144.500
1764842198.869565,0,0,-2079,-259.875
1764842198.8735647,0,0,-1549,-193.625
1764842198.8775704,1,1,2465,308.125
1764842198.8815632,0,0,2587,323.375
1764842198.8855622,0,0,-1003,-125.375
1764842198.8895657,0,0,-2030,-253.750
1764842198.8935616,0,0,-1320,-165.000
1764842198.8975685,1,1,2873,359.125
1764842198.901563,0,0,3113,389.125
1764842198.9055624,0,0,-801,-100.125
1764842198.909554,0,0,-1979,-247.375
1764842198.9135425,0,0,-1848,-231.000
1764842198.917654,1,0,1620,202.500
1764842198.9215214,0,0,2478,309.750
1764842198.9255195,0,0,-980,-122.500
1764842198.929521,0,0,-2013,-251.625
1764842198.9335139,0,0,-1836,-229.500
1764842198.9375186,1,1,1637,204.625
1764842198.9415193,0,0,2793,349.125
1764842198.9455163,0,0,-842,-105.250
1764842198.949517,0,0,-1971,-246.375
1764842198.9535136,0,0,-1829,-228.625
1764842198.9575188,1,1,1615,201.875
1764842198.9615178,0,0,2982,372.750
1764842198.9655166,0,0,-753,-94.125
1764842198.9695237,0,0,-1943,-242.875
1764842198.9735165,0,0,-2103,-262.875
1764842198.9776106,1,1,333,41.625
1764842198.9818654,0,0,2172,271.500
1764842198.985585,0,0,-950,-118.750
1764842198.989526,0,0,-1968,-246.000
1764842198.993516,0,0,-1697,-212.125
1764842198.997543,1,1,1867,233.375
1764842199.001509,0,0,3813,476.625
1764842199.0055034,0,0,-351,-43.875
1764842199.0095227,0,0,-1812,-226.500
1764842199.0135195,0,0,-1930,-241.250
1764842199.0175183,1,1,1005,125.625
1764842199.0215158,0,0,3344,418.000
1764842199.0255182,0,0,-446,-55.750
1764842199.0295117,0,0,-1832,-229.000
1764842199.03359,0,0,-1951,-243.875
1764842199.0375175,1,1,891,111.375
1764842199.0415146,0,0,3500,437.500
1764842199.0455172,0,0,-319,-39.875
1764842199.0495214,0,0,-1791,-223.875
1764842199.0535173,0,0,-1947,-243.375
1764842199.057513,1,1,818,102.250
1764842199.061513,0,0,3652,456.500
1764842199.0655124,0,0,-196,-24.500
1764842199.069522,0,0,-1750,-218.750
1764842199.0735173,0,0,-2024,-253.000
1764842199.0775187,1,1,332,41.500
1764842199.0815136,0,0,3351,418.875
1764842199.085513,0,0,-237,-29.625
1764842199.089518,0,0,-1749,-218.625
1764842199.0935197,0,0,-2084,-260.500
1764842199.097523,1,1,-289,-36.125
1764842199.1015186,0,0,2868,358.500
1764842199.1055188,0,0,-313,-39.125
1764842199.109511,0,0,-1750,-218.750
1764842199.113503,0,0,-2044,-255.500
1764842199.1175187,1,1,-45,-5.625
1764842199.1215174,0,0,3363,420.375
1764842199.1255155,0,0,-27,-3.375
1764842199.1295106,0,0,-1657,-207.125
1764842199.1335,0,0,-2051,-256.375
1764842199.1375165,1,1,-472,-59.000
1764842199.141518,0,0,3004,375.500
1764842199.1455145,0,0,-62,-7.750
1764842199.1495173,0,0,-1650,-206.250
1764842199.1535158,0,0,-605,-75.625
1764842199.1575222,1,1,2996,374.500
1764842199.161516,0,0,54,6.750
1764842199.1655126,0,0,-1598,-199.750
1764842199.1695182,0,0,-2017,-252.125
1764842199.173514,0,0,-704,-88.000
1764842199.1775212,1,1,3002,375.250
1764842199.1815176,0,0,182,22.750
1764842199.1855147,0,0,-1547,-193.375
1764842199.189517,0,0,-1994,-249.250
1764842199.1935134,0,0,-749,-93.625
1764842199.197517,1,1,3086,385.750
1764842199.2015152,0,0,351,43.875
1764842199.205517,0,0,-1485,-185.625
1764842199.2095177,0,0,-1970,-246.250
1764842199.2135122,0,0,-1050,-131.250
1764842199.2175503,1,1,2681,335.125
1764842199.221518,0,0,315,39.375
1764842199.225514,0,0,-1477,-184.625
1764842199.2295172,0,0,-1952,-244.000
1764842199.2335951,0,0,-1049,-131.125
1764842199.2375314,1,1,2825,353.125
1764842199.241499,0,0,558,69.750
1764842199.2455003,0,0,-1390,-173.750
1764842199.2495196,0,0,-1914,-239.250
1764842199.253514,0,0,-867,-108.375
1764842199.2575097,1,1,3248,406.000
1764842199.2614985,0,0,930,116.250
1764842199.2655,0,0,-1274,-159.250
1764842199.2695193,0,0,-1884,-235.500
1764842199.273514,0,0,-1193,-149.125
1764842199.2775178,1,1,2719,339.875
1764842199.2815146,0,0,847,105.875
1764842199.2855153,0,0,-1286,-160.750
1764842199.2895107,0,0,-1876,-234.500
1764842199.2935007,0,0,-1132,-141.500
1764842199.297513,1,1,2926,365.750
1764842199.3015127,0,0,1164,145.500
1764842199.305514,0,0,-1185,-148.125
1764842199.3095076,0,0,-1843,-230.375
1764842199.3135,0,0,-1333,-166.625
1764842199.3175423,1,1,2527,315.875
1764842199.3215187,0,0,1159,144.875
1764842199.3255148,0,0,-1176,-147.000
1764842199.329524,0,0,-1830,-228.750
1764842199.3335166,0,0,-1097,-137.125
1764842199.3375196,1,1,3069,383.625
1764842199.3415132,0,0,1736,217.000
1764842199.3455129,0,0,-1002,-125.250
1764842199.3495164,0,0,-1785,-223.125
1764842199.353517,0,0,-1257,-157.125
1764842199.3575172,1,1,2760,345.000
1764842199.3615124,0,0,1827,228.375
1764842199.3655121,0,0,-967,-120.875
1764842199.3695207,0,0,-1771,-221.375
1764842199.3735135,0,0,-1171,-146.375
1764842199.3775175,1,1,2938,367.250
1764842199.3815117,0,0,2174,271.750
1764842199.3855116,0,0,-864,-108.000
1764842199.389517,0,0,-1748,-218.500
1764842199.3935134,0,0,-1421,-177.625
1764842199.3975163,1,1,2386,298.250
1764842199.4015253,0,0,2071,258.875
1764842199.4055161,0,0,-889,-111.125
1764842199.4095073,0,0,-1754,-219.250
1764842199.413497,0,0,-1596,-199.500
1764842199.4175253,1,1,1908,238.500
1764842199.421517,0,0,2024,253.000
1764842199.42551,0,0,-887,-110.875
1764842199.429519,0,0,-1745,-218.125
1764842199.4335856,0,0,-1477,-184.625
1764842199.4375257,1,1,2219,277.375
1764842199.4414983,0,0,2548,318.500
1764842199.4454968,0,0,-711,-88.875
1764842199.4495175,0,0,-1697,-212.125
1764842199.4535108,0,0,-1360,-170.000
1764842199.457507,1,1,2462,307.750
1764842199.4614978,0,0,3035,379.375
1764842199.4654965,0,0,-545,-68.125
1764842199.4695044,0,0,-1657,-207.125
1764842199.4734938,0,0,-1307,-163.375
1764842199.477512,1,1,2557,319.625
1764842199.4815128,0,0,3338,417.250
1764842199.4855106,0,0,-445,-55.625
1764842199.4895144,0,0,-1642,-205.250
1764842199.4935105,0,0,-1652,-206.500
1764842199.4975326,1,1,1613,201.625
1764842199.5015228,0,0,2893,361.625
1764842199.5055134,0,0,-564,-70.500
1764842199.5095026,0,0,-1676,-209.500
1764842199.5134947,0,0,-1476,-184.500
1764842199.5175085,1,1,2119,264.875
1764842199.5215468,0,0,3728,466.000
1764842199.5255096,0,0,-236,-29.500
1764842199.529504,0,0,-1578,-197.250
1764842199.5334933,0,0,-560,-70.000
1764842199.5374987,1,1,3822,477.750
1764842199.5414946,0,0,5147,643.375
1764842199.545494,0,0,223,27.875
1764842199.5495164,0,0,-1506,-188.250
1764842199.5535073,0,0,-1450,-181.250
1764842199.5575132,1,1,2116,264.500
1764842199.561508,0,0,4139,517.375
1764842199.56551,0,0,-91,-11.375
1764842199.5695155,0,0,-1617,-202.125
1764842199.5735111,0,0,-1722,-215.250
1764842199.577511,1,1,1391,173.875
1764842199.5815067,0,0,3705,463.125
1764842199.5855088,0,0,-216,-27.000
1764842199.589512,0,0,-1658,-207.250
1764842199.5935109,0,0,-1880,-235.000
1764842199.597512,1,1,749,93.625
1764842199.6015062,0,0,3400,425.000
1764842199.6055079,0,0,-241,-30.125
1764842199.609514,0,0,-1662,-207.750
1764842199.6135094,0,0,-1952,-244.000
1764842199.6175132,1,1,288,36.000
1764842199.6215227,0,0,3159,394.875
1764842199.6255507,0,0,-257,-32.125
1764842199.6295443,0,0,-1656,-207.000
1764842199.7802691,0,0,8092,1011.500
1764842199.7822084,0,0,3351,418.875
1764842199.78556,0,0,713,89.125
1764842199.7895496,0,0,3673,459.125
1764842199.793536,0,0,7415,926.875
1764842199.7975533,1,1,9556,1194.500
1764842199.8015532,0,0,4068,508.500
1764842199.8055546,0,0,1626,203.250
1764842199.8095467,0,0,4757,594.625
1764842199.8135362,0,0,7983,997.875
1764842199.817554,1,1,9591,1198.875
1764842199.8215528,0,0,4320,540.000
1764842199.8255522,0,0,1781,222.625
1764842199.8295536,0,0,4891,611.375
1764842199.8335533,0,0,7972,996.500
1764842199.8375583,1,1,9442,1180.250
1764842199.8415496,0,0,4751,593.875
1764842199.8455524,0,0,2544,318.000
1764842199.8495564,0,0,5606,700.750
1764842199.8535552,0,0,8214,1026.750
1764842199.8575552,1,1,9273,1159.125
1764842199.8615482,0,0,4373,546.625
1764842199.8655524,0,0,627,78.375
1764842199.8695514,0,0,3287,410.875
1764842199.873552,0,0,6705,838.125
1764842199.8775544,1,1,8687,1085.875
1764842199.8815515,0,0,4281,535.125
1764842199.88555,0,0,-586,-73.250
1764842199.889556,0,0,1358,169.750
1764842199.8935533,0,0,5240,655.000
1764842199.897557,1,1,8032,1004.000
1764842199.9015462,0,0,4481,560.125
1764842199.9055488,0,0,-399,-49.875
1764842199.9095526,0,0,1608,201.000
1764842199.9135513,0,0,5347,668.375
1764842199.9175632,1,1,7945,993.125
1764842199.9215574,0,0,4375,546.875
1764842199.925548,0,0,-1327,-165.875
1764842199.9296367,0,0,-583,-72.875
1764842199.9335115,0,0,3383,422.875
1764842199.937512,1,1,6958,869.750
1764842199.9415097,0,0,4490,561.250
1764842199.9455063,0,0,-1172,-146.500
1764842199.9494944,0,0,-89,-11.125
1764842199.9534903,0,0,3846,480.750
1764842199.9575088,1,1,7116,889.500
1764842199.9615095,0,0,4624,578.000
1764842199.9655066,0,0,-1413,-176.625
1764842199.9695108,0,0,-1143,-142.875
1764842199.973506,0,0,2695,336.875
1764842199.97767,1,1,6438,804.750
1764842199.9818687,0,0,4500,562.500
1764842199.9855711,0,0,-1516,-189.500
1764842199.9895175,0,0,-2054,-256.750
1764842199.9935055,0,0,706,88.250
1764842199.9975097,1,1,5057,632.125
1764842200.0015092,0,0,4257,532.125
1764842200.0055058,0,0,-1532,-191.500
1764842200.009506,0,0,-1776,-222.000
1764842200.0135057,0,0,184,23.000
1764842200.0175037,1,1,4614,576.750
1764842200.0214934,0,0,4408,551.000
1764842200.025493,0,0,-1441,-180.125
1764842200.0295374,0,0,-2053,-256.625
1764842200.0334883,0,0,528,66.000
1764842200.0374935,1,1,4889,611.125
1764842200.0414977,0,0,4841,605.125
1764842200.0455334,0,0,-1268,-158.500
1764842200.0498214,0,0,-2008,-251.000
1764842200.0537152,0,0,1187,148.375
1764842200.0575316,1,1,5381,672.625
1764842200.0614915,0,0,5216,652.000
1764842200.0654924,0,0,-1133,-141.625
1764842200.0695145,0,0,-1720,-215.000
1764842200.0735059,0,0,-580,-72.500
1764842200.0775049,1,1,3837,479.625
1764842200.0814927,0,0,4854,606.750
1764842200.085492,0,0,-1120,-140.000
1764842200.089515,0,0,-2123,-265.375
1764842200.0935059,0,0,108,13.500
1764842200.097507,1,1,4492,561.500
1764842200.1015048,0,0,5383,672.875
1764842200.1055064,0,0,-846,-105.750
1764842200.1095045,0,0,-1922,-240.250
1764842200.113505,0,0,-542,-67.750
1764842200.1175113,1,1,3836,479.500
1764842200.1215024,0,0,5349,668.625
1764842200.1255076,0,0,-768,-96.000
1764842200.1295514,0,0,-2238,-279.750
1764842200.133507,0,0,242,30.250
1764842200.1375077,1,1,4566,570.750
1764842200.1415067,0,0,5902,737.750
1764842200.1455033,0,0,-500,-62.500
1764842200.1495059,0,0,-2250,-281.250
1764842200.1535058,0,0,217,27.125
1764842200.157513,1,1,4505,563.125
1764842200.1615028,0,0,6022,752.750
1764842200.1655014,0,0,-378,-47.250
1764842200.1695077,0,0,-2264,-283.000
1764842200.1735053,0,0,-198,-24.750
1764842200.1775956,1,1,4110,513.750
1764842200.1815176,0,0,5970,746.250
1764842200.1855044,0,0,-303,-37.875
1764842200.189498,0,0,-1890,-236.250
1764842200.1934912,0,0,-866,-108.250
1764842200.1975088,1,1,3407,425.875
1764842200.2015023,0,0,5787,723.375
1764842200.2055051,0,0,-225,-28.125
1764842200.209498,0,0,-1660,-207.500
1764842200.2134912,0,0,-1271,-158.875
1764842200.2175086,1,1,2891,361.375
1764842200.2215075,0,0,5734,716.750
1764842200.2255023,0,0,5,0.625
1764842200.2295055,0,0,-1979,-247.375
1764842200.233543,0,0,-983,-122.875
1764842200.2375114,1,1,3247,405.875
1764842200.241506,0,0,6109,763.625
1764842200.2455037,0,0,369,46.125
1764842200.2495084,0,0,-2297,-287.125
1764842200.2535014,0,0,-515,-64.375
1764842200.2575085,1,1,3732,466.500
1764842200.2615042,0,0,6458,807.250
1764842200.265505,0,0,648,81.000
1764842200.2695026,0,0,-2216,-277.000
1764842200.273502,0,0,-948,-118.500
1764842200.277508,1,1,3241,405.125
1764842200.281504,0,0,6282,785.250
1764842200.285505,0,0,730,91.250
1764842200.2894957,0,0,-1587,-198.375
1764842200.293488,0,0,-1705,-213.125
1764842200.2975028,1,1,2087,260.875
1764842200.3015053,0,0,5733,716.625
1764842200.3055062,0,0,863,107.875
1764842200.3095038,0,0,-1955,-244.375
1764842200.313503,0,0,-1349,-168.625
1764842200.3175073,1,1,2695,336.875
1764842200.321524,0,0,6191,773.875
1764842200.3255148,0,0,1317,164.625
1764842200.3295028,0,0,-2172,-271.500
1764842200.33352,0,0,-1241,-155.125
1764842200.3375037,1,1,2820,352.500
1764842200.3415062,0,0,6321,790.125
1764842200.345504,0,0,1568,196.000
1764842200.3494966,0,0,-1720,-215.000
1764842200.353487,0,0,-1731,-216.375
1764842200.3575032,1,1,1995,249.375
1764842200.3615017,0,0,5874,734.250
1764842200.3655047,0,0,1730,216.250
1764842200.369507,0,0,-2067,-258.375
1764842200.3735,0,0,-1484,-185.500
1764842200.377596,1,1,2438,304.750
1764842200.3815181,0,0,6191,773.875
1764842200.3855057,0,0,2103,262.875
1764842200.389494,0,0,-1794,-224.250
1764842200.3934891,0,0,-1756,-219.500
1764842200.3975005,1,1,5884,735.500
1764842200.4014995,0,0,2280,285.000
1764842200.4055037,0,0,-1712,-214.000
1764842200.4094975,0,0,-1832,-229.000
1764842200.4134846,0,0,1619,202.375
1764842200.4175029,1,1,5715,714.375
1764842200.4215014,0,0,2601,325.125
1764842200.4255013,0,0,-1949,-243.625
1764842200.4295118,0,0,-1716,-214.500
1764842200.4335425,0,0,1978,247.250
1764842200.4375126,1,1,5957,744.625
1764842200.4415019,0,0,2934,366.750
1764842200.445502,0,0,-1745,-218.125
1764842200.449517,0,0,-1879,-234.875
1764842200.453505,0,0,1456,182.000
1764842200.4574995,1,1,5612,701.500
1764842200.4614851,0,0,3095,386.875
1764842200.4654841,0,0,-1709,-213.625
1764842200.4695058,0,0,-1877,-234.625
1764842200.473504,0,0,1230,153.750
1764842200.4775,1,1,5460,682.500
1764842200.4814858,0,0,3439,429.875
1764842200.485485,0,0,-1809,-226.125
1764842200.4894907,0,0,-1873,-234.125
1764842200.4934871,0,0,1574,196.750
1764842200.4974966,1,1,5681,710.125
1764842200.5015054,0,0,3744,468.000
1764842200.5054998,0,0,-1635,-204.375
1764842200.509499,0,0,-1870,-233.750
1764842200.5135007,0,0,839,104.875
1764842200.5175073,1,1,5150,643.750
1764842200.521502,0,0,3876,484.500
1764842200.5254972,0,0,-1633,-204.125
1764842200.5294905,0,0,-1906,-238.250
1764842200.533483,0,0,883,110.375
1764842200.5375223,1,1,5171,646.375
1764842200.5414853,0,0,4207,525.875
1764842200.545485,0,0,-1577,-197.125
1764842200.5495005,0,0,-2016,-252.000
1764842200.5534983,0,0,972,121.500
1764842200.5575063,1,1,5217,652.125
1764842200.5615022,0,0,4480,560.000
1764842200.5655017,0,0,-1483,-185.375
1764842200.5695016,0,0,-2005,-250.625
1764842200.5734956,0,0,736,92.000
1764842200.5775888,1,1,5029,628.625
1764842200.581516,0,0,4593,574.125
1764842200.5855014,0,0,-1425,-178.125
1764842200.5894902,0,0,-1553,-194.125
1764842200.593482,0,0,-405,-50.625
1764842200.5974991,1,1,4023,502.875
1764842200.6015005,0,0,4444,555.500
1764842200.6054997,0,0,-1388,-173.500
1764842200.6094944,0,0,-1669,-208.625
1764842200.6134834,0,0,-263,-32.875
1764842200.6174958,1,1,4152,519.000
1764842200.6215026,0,0,4829,603.625
1764842200.625501,0,0,-1198,-149.750
1764842200.629502,0,0,-1876,-234.500
1764842200.6335,0,0,-110,-13.750
1764842200.637503,1,1,4285,535.625
1764842200.6414976,0,0,5195,649.375
1764842200.6455007,0,0,-984,-123.000
1764842200.6495042,0,0,-2173,-271.625
1764842200.6534986,0,0,605,75.625
1764842200.6575055,1,1,4876,609.500
1764842200.6615005,0,0,5650,706.250
1764842200.6655009,0,0,-787,-98.375
1764842200.6695018,0,0,-2222,-277.750
1764842200.6734986,0,0,336,42.000
1764842200.6775014,1,1,4629,578.625
1764842200.6814978,0,0,5718,714.750
1764842200.6854994,0,0,-701,-87.625
1764842200.6895046,0,0,-1966,-245.750
1764842200.6935,0,0,-427,-53.375
1764842200.6975021,1,1,3909,488.625
1764842200.701496,0,0,5616,702.000
1764842200.7054956,0,0,-587,-73.375
1764842200.709502,0,0,-2207,-275.875
1764842200.7135,0,0,-200,-25.000
1764842200.7175033,1,1,4115,514.375
1764842200.7214952,0,0,5945,743.125
1764842200.7254958,0,0,-331,-41.375
1764842200.7295024,0,0,-2270,-283.750
1764842200.7334976,0,0,-181,-22.625
1764842200.7375138,1,1,4103,512.875
1764842200.7414968,0,0,6093,761.625
1764842200.7454953,0,0,-161,-20.125
1764842200.749494,0,0,-2206,-275.750
1764842200.7534974,0,0,-508,-63.500
1764842200.7575033,1,1,3772,471.500
1764842200.7614992,0,0,6069,758.625
1764842200.765495,0,0,-46,-5.750
1764842200.7694986,0,0,-1772,-221.500
1764842200.773498,0,0,-1112,-139.000
1764842200.7827833,0,0,5917,739.625
1764842200.7855182,0,0,177,22.125
1764842200.7894938,0,0,-2293,-286.625
1764842200.7934847,0,0,-316,-39.500
1764842200.7974973,1,1,3923,490.375
1764842200.801508,0,0,6413,801.625
1764842200.805498,0,0,401,50.125
1764842200.8094935,0,0,-1624,-203.000
1764842200.8134785,0,0,-1502,-187.750
1764842200.817496,1,1,2496,312.000
1764842200.8215003,0,0,5816,727.000
1764842200.8254976,0,0,522,65.250
1764842200.8294833,0,0,-2175,-271.875
1764842200.8334787,0,0,-931,-116.375
1764842200.8374972,1,1,3246,405.750
1764842200.8414993,0,0,6318,789.750
1764842200.8454955,0,0,831,103.875
1764842200.8494995,0,0,-1631,-203.875
1764842200.8534951,0,0,-1643,-205.375
1764842200.8574982,1,1,2208,276.000
1764842200.8614945,0,0,5813,726.625
1764842200.8654966,0,0,922,115.250
1764842200.869499,0,0,-1622,-202.750
1764842200.8734937,0,0,-1718,-214.750
1764842200.8774989,1,1,2027,253.375
1764842200.8814943,0,0,5811,726.375
1764842200.8854985,0,0,1326,165.750
1764842200.8895009,0,0,-2236,-279.500
1764842200.8934922,0,0,-931,-116.375
1764842200.8974895,1,1,3196,399.500
1764842200.9014783,0,0,6544,818.000
1764842200.9054794,0,0,1827,228.375
1764842200.9094987,0,0,-2165,-270.625
1764842200.9134924,0,0,-1208,-151.000
1764842200.9174976,1,1,2826,353.250
1764842200.9214914,0,0,6377,797.125
1764842200.9254947,0,0,2054,256.750
1764842200.9295022,0,0,-2129,-266.125
1764842200.9334946,0,0,-1312,-164.000
1764842200.9374957,1,1,2672,334.000
1764842200.9415421,0,0,6300,787.500
1764842200.9455419,0,0,2205,275.625
1764842200.94954,0,0,-1626,-203.250
1764842200.9535365,0,0,-1809,-226.125
1764842200.95754,1,1,1526,190.750
1764842200.9615352,0,0,5602,700.250
1764842200.9655368,0,0,2306,288.250
1764842200.9695442,0,0,-1828,-228.500
1764842200.9735377,0,0,-1717,-214.625
1764842200.977626,1,1,1978,247.250
1764842200.981958,0,0,2806,350.750
1764842200.9856517,0,0,2806,350.750
1764842200.989548,0,0,-1994,-249.250
1764842200.9935248,0,0,-1568,-196.000
1764842200.9975553,1,1,2231,278.875
1764842201.0015366,0,0,6076,759.500
1764842201.005535,0,0,3136,392.000
1764842201.0095282,0,0,-1912,-239.000
1764842201.0135212,0,0,1973,246.625
1764842201.0175405,1,1,5903,737.875
1764842201.021539,0,0,3335,416.875
1764842201.025538,0,0,-1718,-214.750
1764842201.029539,0,0,-1865,-233.125
1764842201.033538,0,0,1527,190.875
1764842201.037538,1,1,5607,700.875
1764842201.0416212,0,0,3600,450.000
1764842201.0454836,0,0,-1840,-230.000
1764842201.0494943,0,0,-1665,-208.125
1764842201.0534954,0,0,2010,251.250
1764842201.057495,1,1,5896,737.000
1764842201.0614946,0,0,3850,481.250
1764842201.0654902,0,0,-1570,-196.250
1764842201.069494,0,0,-1809,-226.125
1764842201.0734875,0,0,800,100.000
1764842201.077498,1,1,5058,632.250
1764842201.0814962,0,0,3907,488.375
1764842201.0855148,0,0,-1585,-198.125
1764842201.0895073,0,0,-1897,-237.125
1764842201.0934925,0,0,1112,139.000
1764842201.0974965,1,1,5275,659.375
1764842201.1014924,0,0,4305,538.125
1764842201.1054935,0,0,-1602,-200.250
1764842201.109492,0,0,-1900,-237.500
1764842201.1134899,0,0,1482,185.250
1764842201.1174977,1,1,5517,689.625
1764842201.1214938,0,0,4643,580.375
1764842201.1254952,0,0,-1486,-185.750
1764842201.1294963,0,0,-1998,-249.750
1764842201.133489,0,0,1094,136.750
1764842201.1374936,1,1,5218,652.250
1764842201.1414948,0,0,4753,594.125
1764842201.1455014,0,0,-1417,-177.125
1764842201.1494827,0,0,-1905,-238.125
1764842201.1534746,0,0,729,91.125
1764842201.1574934,1,1,4931,616.375
1764842201.1614926,0,0,4878,609.750
1764842201.1654904,0,0,-1329,-166.125
1764842201.1694837,0,0,-1740,-217.500
1764842201.1734746,0,0,235,29.375
1764842201.1774938,1,1,4520,565.000
1764842201.1816974,0,0,4988,623.500
1764842201.185503,0,0,-1234,-154.250
1764842201.1894846,0,0,-1815,-226.875
1764842201.1934736,0,0,282,35.250
1764842201.1974907,1,1,4544,568.000
1764842201.2014902,0,0,5256,657.000
1764842201.2054918,0,0,-1077,-134.625
1764842201.2094862,0,0,-2076,-259.500
1764842201.213477,0,0,462,57.750
1764842201.217491,1,1,4668,583.500
1764842201.2214897,0,0,5542,692.750
1764842201.2254903,0,0,-907,-113.375
1764842201.2294943,0,0,-2029,-253.625
1764842201.2334921,0,0,200,25.000
1764842201.237493,1,1,4437,554.625
1764842201.2415414,0,0,5654,706.750
1764842201.245752,0,0,-762,-95.250
1764842201.2494874,0,0,-2153,-269.125
1764842201.2534764,0,0,247,30.875
1764842201.2574904,1,1,4453,556.625
1764842201.2614868,0,0,5808,726.000
1764842201.265488,0,0,-636,-79.500
1764842201.269481,0,0,-1818,-227.250
1764842201.2734754,0,0,-345,-43.125
1764842201.277493,1,1,3915,489.375
1764842201.2814875,0,0,5816,727.000
1764842201.2854884,0,0,-432,-54.000
1764842201.289479,0,0,-2223,-277.875
1764842201.2934783,0,0,345,43.125
1764842201.2974904,1,1,4500,562.500
1764842201.3014898,0,0,6228,778.500
1764842201.30549,0,0,-180,-22.500
1764842201.3094907,0,0,-2241,-280.125
1764842201.3134909,0,0,-21,-2.625
1764842201.3174958,1,1,4164,520.500
1764842201.321491,0,0,6227,778.375
1764842201.325489,0,0,-4,-0.500
1764842201.3294942,0,0,-2263,-282.875
1764842201.3334906,0,0,69,8.625
1764842201.337496,1,1,4207,525.875
1764842201.341504,0,0,6333,791.625
1764842201.34549,0,0,136,17.000
1764842201.3494895,0,0,-1804,-225.500
1764842201.3534865,0,0,-778,-97.250
1764842201.357496,1,1,3382,422.750
1764842201.3614912,0,0,6082,760.250
1764842201.3654902,0,0,279,34.875
1764842201.3694935,0,0,-1806,-225.750
1764842201.3734887,0,0,-870,-108.750
1764842201.3774948,1,1,3271,408.875
1764842201.3816884,0,0,6116,764.500
1764842201.3855052,0,0,444,55.500
1764842201.389483,0,0,-1439,-179.875
1764842201.3934734,0,0,-1484,-185.500
1764842201.3974876,1,1,2473,309.125
1764842201.4014914,0,0,5784,723.000
1764842201.4054904,0,0,541,67.625
1764842201.409482,0,0,-1358,-169.750
1764842201.413472,0,0,-1727,-215.875
1764842201.4174879,1,1,1725,215.625
1764842201.421489,0,0,5472,684.000
1764842201.425487,0,0,909,113.625
1764842201.4294913,0,0,-2117,-264.625
1764842201.4334905,0,0,-949,-118.625
1764842201.437493,1,1,3152,394.000
1764842201.4414911,0,0,6377,797.125
1764842201.445529,0,0,1514,189.250
1764842201.4494944,0,0,-2247,-280.875
1764842201.4534845,0,0,-773,-96.625
1764842201.4574885,1,1,3316,414.500
1764842201.4614851,0,0,6479,809.875
1764842201.4654865,0,0,1687,210.875
1764842201.4694872,0,0,-1647,-205.875
1764842201.4734871,0,0,-1586,-198.250
1764842201.4774904,1,1,2241,280.125
1764842201.4814854,0,0,5933,741.625
1764842201.4854875,0,0,1866,233.250
1764842201.4894924,0,0,-1822,-227.750
1764842201.4934878,0,0,-1450,-181.250
1764842201.4974887,1,1,2450,306.250
1764842201.5014832,0,0,6092,761.500
1764842201.5054862,0,0,2314,289.250
1764842201.509477,0,0,-2133,-266.625
1764842201.5134702,0,0,-592,-74.000
1764842201.5174832,1,1,3439,429.875
1764842201.5214846,0,0,6602,825.250
1764842201.525485,0,0,2570,321.250
1764842201.529491,0,0,-1545,-193.125
1764842201.5334847,0,0,-1765,-220.625
1764842201.5374825,1,1,1681,210.125
1764842201.5414693,0,0,5622,702.750
1764842201.5455446,0,0,2579,322.375
1764842201.5495224,0,0,-1561,-195.125
1764842201.5538082,0,0,-1779,-222.375
1764842201.5575194,1,1,1511,188.875
1764842201.56151,0,0,5524,690.500
1764842201.5655074,0,0,2910,363.750
1764842201.569529,0,0,-1658,-207.250
1764842201.573531,0,0,-1757,-219.625
1764842201.5775259,1,1,1821,227.625
1764842201.5816,0,0,5728,716.000
1764842201.5855212,0,0,3270,408.750
1764842201.5895126,0,0,-1569,-196.125
1764842201.593511,0,0,-1807,-225.875
1764842201.59753,1,1,1322,165.250
1764842201.601531,0,0,5402,675.250
1764842201.6055264,0,0,3494,436.750
1764842201.609518,0,0,-1785,-223.125
1764842201.6135135,0,0,-1767,-220.875
1764842201.6175275,1,1,1802,225.250
1764842201.6215324,0,0,5708,713.500
1764842201.6255283,0,0,3923,490.375
1764842201.6295302,0,0,-1598,-199.750
1764842201.6335256,0,0,1405,175.625
1764842201.6375332,1,1,5423,677.875
1764842201.6415305,0,0,4014,501.750
1764842201.645617,0,0,-1482,-185.250
1764842201.6494904,0,0,-1717,-214.625
1764842201.653508,0,0,503,62.875
1764842201.6574867,1,1,4761,595.125
1764842201.6614726,0,0,4079,509.875
1764842201.6654716,0,0,-1464,-183.000
1764842201.6694856,0,0,-1805,-225.625
1764842201.6734846,0,0,781,97.625
1764842201.677483,1,1,4966,620.750
1764842201.6814718,0,0,4498,562.250
1764842201.6854692,0,0,-1492,-186.500
1764842201.6894884,0,0,-1936,-242.000
1764842201.6934834,0,0,1037,129.625
1764842201.6974866,1,1,5140,642.500
1764842201.7014809,0,0,4769,596.125
