Timestamp,LO_plus,LO_minus,Raw_ADC,Voltage_mV
1765544817.4491148,0,0,10630,1328.750
1765544817.4509094,0,0,10630,1328.750
1765544817.4526162,0,0,7836,979.500
1765544817.455262,0,0,14653,1831.625
1765544817.4592607,0,0,17094,2136.750
1765544817.4632607,0,0,14152,1769.000
1765544817.4672556,1,1,10511,1313.875
1765544817.4712613,0,0,8266,1033.250
1765544817.4752612,0,0,15604,1950.500
1765544817.4792585,0,0,18098,2262.250
1765544817.4832597,0,0,14785,1848.125
1765544817.487257,1,1,10746,1343.250
1765544817.4912653,0,0,8170,1021.250
1765544817.4952605,0,0,15443,1930.375
1765544817.49926,0,0,18216,2277.000
1765544817.50327,0,0,15007,1875.875
1765544817.507271,1,1,10918,1364.750
1765544817.5113127,0,0,8180,1022.500
1765544817.5152676,0,0,15368,1921.000
1765544817.5192606,0,0,18382,2297.750
1765544817.5232737,0,0,15285,1910.625
1765544817.5272748,1,1,11120,1390.000
1765544817.531308,0,0,7967,995.875
1765544817.5352693,0,0,14397,1799.625
1765544817.5392604,0,0,17610,2201.250
1765544817.543269,0,0,14799,1849.875
1765544817.547256,1,1,10957,1369.625
1765544817.5512576,0,0,8266,1033.250
1765544817.5552568,0,0,15267,1908.375
1765544817.5592582,0,0,18626,2328.250
1765544817.5632706,0,0,15747,1968.375
1765544817.5672696,1,1,11479,1434.875
1765544817.5713127,0,0,8162,1020.250
1765544817.5752661,0,0,14752,1844.000
1765544817.5792656,0,0,18510,2313.750
1765544817.583266,0,0,15802,1975.250
1765544817.5872664,1,1,11554,1444.250
1765544817.5912654,0,0,8255,1031.875
1765544817.5952542,0,0,14711,1838.875
1765544817.599256,0,0,18622,2327.750
1765544817.6032703,0,0,16046,2005.750
1765544817.6072693,1,1,11740,1467.500
1765544817.611308,0,0,8066,1008.250
1765544817.6152644,0,0,13896,1737.000
1765544817.6192575,0,0,18252,2281.500
1765544817.6232667,0,0,15821,1977.625
1765544817.627266,1,1,11622,1452.750
1765544817.6312675,0,0,8072,1009.000
1765544817.6352522,0,0,13935,1741.875
1765544817.639261,0,0,18475,2309.375
1765544817.6433315,0,0,16212,2026.500
1765544817.6472905,1,1,11919,1489.875
1765544817.6512725,0,0,8307,1038.375
1765544817.6552565,0,0,13816,1727.000
1765544817.6592584,0,0,18451,2306.375
1765544817.6632676,0,0,16257,2032.125
1765544817.667264,1,1,11958,1494.750
1765544817.6712685,0,0,8261,1032.625
1765544817.6752539,0,0,13445,1680.625
1765544817.6792543,0,0,18412,2301.500
1765544817.6832697,0,0,16436,2054.500
1765544817.6872714,1,1,12129,1516.125
1765544817.6912692,0,0,8272,1034.000
1765544817.6952631,0,0,13159,1644.875
1765544817.699265,0,0,18415,2301.875
1765544817.7032704,0,0,16676,2084.500
1765544817.7073154,1,1,12353,1544.125
1765544817.7112734,0,0,8358,1044.750
1765544817.7152555,0,0,12644,1580.500
1765544817.719255,0,0,18202,2275.250
1765544817.723268,0,0,16611,2076.375
1765544817.7272637,1,1,12336,1542.000
1765544817.7312906,0,0,8417,1052.125
1765544817.7352781,0,0,12467,1558.375
1765544817.7392569,0,0,18214,2276.750
1765544817.743266,0,0,16801,2100.125
1765544817.7472637,1,1,12515,1564.375
1765544817.751266,0,0,8513,1064.125
1765544817.7552497,0,0,12228,1528.500
1765544817.7592533,0,0,18222,2277.750
1765544817.7634647,0,0,17073,2134.125
1765544817.7674615,1,1,12784,1598.000
1765544817.771288,0,0,8673,1084.125
1765544817.7752624,0,0,11872,1484.000
1765544817.7792625,0,0,18071,2258.875
1765544817.7832727,0,0,17070,2133.750
1765544817.787299,1,1,12813,1601.625
1765544817.791287,0,0,8738,1092.250
1765544817.7952662,0,0,11553,1444.125
1765544817.799261,0,0,17930,2241.250
1765544817.8032653,0,0,17065,2133.125
1765544817.8072639,1,1,12838,1604.750
1765544817.811314,0,0,8807,1100.875
1765544817.8152647,0,0,11186,1398.250
1765544817.8192542,0,0,17821,2227.625
1765544817.8232563,0,0,17217,2152.125
1765544817.827254,1,1,13024,1628.000
1765544817.8312552,0,0,8953,1119.125
1765544817.8352537,0,0,10742,1342.750
1765544817.8392527,0,0,17657,2207.125
1765544817.8433547,0,0,17366,2170.750
1765544817.8473034,1,1,13224,1653.000
1765544817.8512857,0,0,9151,1143.875
1765544817.8552604,0,0,10744,1343.000
1765544817.8592541,0,0,17625,2203.125
1765544817.8632562,0,0,17350,2168.750
1765544817.8672528,1,1,13208,1651.000
1765544817.871254,0,0,9120,1140.000
1765544817.8752542,0,0,9776,1222.000
1765544817.8792522,0,0,17083,2135.375
1765544817.8832572,0,0,17316,2164.500
1765544817.8872514,1,1,13327,1665.875
1765544817.8912566,0,0,9301,1162.625
1765544817.8952634,0,0,9923,1240.375
1765544817.8992631,0,0,17348,2168.500
1765544817.9032624,0,0,17793,2224.125
1765544817.9073355,1,1,13801,1725.125
1765544817.9112916,0,0,9659,1207.375
1765544817.9152637,0,0,9929,1241.125
1765544817.9192598,0,0,17290,2161.250
1765544817.9232647,0,0,17820,2227.500
1765544817.9272606,1,1,13850,1731.250
1765544817.931263,0,0,9736,1217.000
1765544817.935293,0,0,9606,1200.750
1765544817.9392774,0,0,17138,2142.250
1765544817.9432604,0,0,17991,2248.875
1765544817.947252,1,1,14114,1764.250
1765544817.9512553,0,0,9964,1245.500
1765544817.9552598,0,0,9402,1175.250
1765544817.959262,0,0,16887,2110.875
1765544817.9632573,0,0,17878,2234.750
1765544817.9673717,1,1,14043,1755.375
1765544817.9713504,0,0,9968,1246.000
1765544817.975326,0,0,9515,1189.375
1765544817.9793472,0,0,17104,2138.000
1765544817.983337,0,0,14643,1830.375
1765544817.9873352,1,1,10375,1296.875
1765544817.9913368,0,0,8967,1120.875
1765544817.9953196,0,0,16561,2070.125
1765544817.9993858,0,0,18145,2268.125
1765544818.0033453,0,0,14509,1813.625
1765544818.007325,1,1,10329,1291.125
1765544818.0113273,0,0,8320,1040.000
1765544818.015335,0,0,15811,1976.375
1765544818.0193348,0,0,17804,2225.500
1765544818.02333,0,0,14303,1787.875
1765544818.0273216,1,1,10280,1285.000
1765544818.0313275,0,0,8452,1056.500
1765544818.0353227,0,0,16003,2000.375
1765544818.0393221,0,0,18106,2263.250
1765544818.0434096,0,0,14646,1830.750
1765544818.0473926,1,1,10511,1313.875
1765544818.051377,0,0,8585,1073.125
1765544818.0553274,0,0,16147,2018.375
1765544818.0593457,0,0,18429,2303.625
1765544818.0633526,0,0,15106,1888.250
1765544818.0674472,1,0,10843,1355.375
1765544818.0714004,0,0,8308,1038.500
1765544818.075396,0,0,15583,1947.875
1765544818.0794044,0,0,18180,2272.500
1765544818.0834038,0,0,14922,1865.250
1765544818.0873954,1,1,10751,1343.875
1765544818.0914,0,0,7890,986.250
1765544818.0953953,0,0,14840,1855.000
1765544818.0993927,0,0,17900,2237.500
1765544818.1034112,0,0,14820,1852.500
1765544818.1074085,1,1,10741,1342.625
1765544818.1114144,0,0,7905,988.125
1765544818.115408,0,0,14857,1857.125
1765544818.1194072,0,0,18134,2266.750
1765544818.1234121,0,0,15161,1895.125
1765544818.1274047,1,0,10979,1372.375
1765544818.131409,0,0,7895,986.875
1765544818.1354177,0,0,14695,1836.875
1765544818.1394658,0,0,18245,2280.625
1765544818.1434188,0,0,15426,1928.250
1765544818.14739,1,1,11188,1398.500
1765544818.1514013,0,0,7855,981.875
1765544818.155466,0,0,14202,1775.250
1765544818.1594229,0,0,18037,2254.625
1765544818.1634068,0,0,15325,1915.625
1765544818.1674845,1,1,11150,1393.750
1765544818.1713572,0,0,8005,1000.625
1765544818.175353,0,0,14592,1824.000
1765544818.1793518,0,0,18503,2312.875
1765544818.1833537,0,0,16008,2001.000
1765544818.187355,1,1,11653,1456.625
1765544818.1913543,0,0,8036,1004.500
1765544818.1953518,0,0,13884,1735.500
1765544818.1993523,0,0,18133,2266.625
1765544818.203398,0,0,15674,1959.250
1765544818.207413,1,0,11427,1428.375
1765544818.2113793,0,0,7899,987.375
1765544818.2153525,0,0,13456,1682.000
1765544818.2193534,0,0,18037,2254.625
1765544818.2233684,0,0,15747,1968.375
1765544818.2273684,1,1,11516,1439.500
1765544818.2313666,0,0,8000,1000.000
1765544818.2353773,0,0,13549,1693.625
1765544818.2393515,0,0,18305,2288.125
1765544818.243441,0,0,16246,2030.750
1765544818.2473836,1,0,11912,1489.000
1765544818.2513711,0,0,8142,1017.750
1765544818.2553658,0,0,13369,1671.125
1765544818.259364,0,0,18348,2293.500
1765544818.2634084,0,0,16511,2063.875
1765544818.2674289,1,0,12154,1519.250
1765544818.2713776,0,0,8074,1009.250
1765544818.275349,0,0,12450,1556.250
1765544818.279349,0,0,17930,2241.250
1765544818.2833683,0,0,16254,2031.750
1765544818.287364,1,1,11997,1499.625
1765544818.29137,0,0,8067,1008.375
1765544818.2953563,0,0,12320,1540.000
1765544818.29935,0,0,18020,2252.500
1765544818.303353,0,0,16564,2070.500
1765544818.3073533,1,1,12271,1533.875
1765544818.3113527,0,0,8235,1029.375
1765544818.3153648,0,0,11947,1493.375
1765544818.3193617,0,0,17846,2230.750
1765544818.3233564,0,0,16511,2063.875
1765544818.3273475,1,1,12259,1532.375
1765544818.3313513,0,0,8244,1030.500
1765544818.3353658,0,0,11521,1440.125
1765544818.339367,0,0,17685,2210.625
1765544818.343372,0,0,16548,2068.500
1765544818.3474302,1,0,12332,1541.500
1765544818.3514104,0,0,8475,1059.375
1765544818.3553789,0,0,11957,1494.625
1765544818.359367,0,0,18064,2258.000
1765544818.3633513,0,0,17130,2141.250
1765544818.367385,1,0,12841,1605.125
1765544818.3713505,0,0,8640,1080.000
1765544818.3753486,0,0,11041,1380.125
1765544818.3793511,0,0,17619,2202.375
1765544818.3833508,0,0,16941,2117.625
1765544818.3873444,1,0,12747,1593.375
1765544818.391356,0,0,8646,1080.750
1765544818.3953648,0,0,10480,1310.000
1765544818.3993657,0,0,17294,2161.750
1765544818.4033704,0,0,16847,2105.875
1765544818.4074144,0,0,12735,1591.875
1765544818.4113781,0,0,8765,1095.625
1765544818.4153512,0,0,10576,1322.000
1765544818.419346,0,0,17503,2187.875
1765544818.4233694,0,0,17249,2156.125
1765544818.4273646,1,1,13107,1638.375
1765544818.4313667,0,0,8995,1124.375
1765544818.4353502,0,0,10094,1261.750
1765544818.4393468,0,0,17180,2147.500
1765544818.4490216,0,0,9108,1138.500
1765544818.4513826,0,0,9108,1138.500
1765544818.4553497,0,0,10602,1325.250
1765544818.4593458,0,0,17603,2200.375
1765544818.4633622,0,0,17676,2209.500
1765544818.4673922,1,1,13577,1697.125
1765544818.4713516,0,0,9361,1170.125
1765544818.4753444,0,0,9561,1195.125
1765544818.4793437,0,0,16978,2122.250
1765544818.4833503,0,0,17484,2185.500
1765544818.4873466,1,1,13520,1690.000
1765544818.4913476,0,0,9427,1178.375
1765544818.4953501,0,0,9311,1163.875
1765544818.4993453,0,0,16807,2100.875
1765544818.5033543,0,0,17534,2191.750
1765544818.5073473,1,1,13627,1703.375
1765544818.511348,0,0,9575,1196.875
1765544818.5153482,0,0,16916,2114.500
1765544818.519346,0,0,17841,2230.125
1765544818.5233657,0,0,13986,1748.250
1765544818.527362,1,1,9837,1229.625
1765544818.5313683,0,0,9094,1136.750
1765544818.5353675,0,0,16686,2085.750
1765544818.5393643,0,0,17879,2234.875
1765544818.5433745,0,0,14106,1763.250
1765544818.5473633,1,1,9970,1246.250
1765544818.551369,0,0,8963,1120.375
1765544818.5553482,0,0,16536,2067.000
1765544818.5593476,0,0,17902,2237.750
1765544818.563363,0,0,14187,1773.375
1765544818.567383,1,0,10050,1256.250
1765544818.571347,0,0,8409,1051.125
1765544818.5753496,0,0,15933,1991.625
1765544818.5793633,0,0,17693,2211.625
1765544818.5833652,0,0,14102,1762.750
1765544818.58736,1,1,10062,1257.750
1765544818.5913608,0,0,8369,1046.125
1765544818.595364,0,0,15988,1998.500
1765544818.5993614,0,0,17981,2247.625
1765544818.6033633,0,0,14487,1810.875
1765544818.6073577,1,1,10341,1292.625
1765544818.6113658,0,0,8336,1042.000
1765544818.6153631,0,0,15917,1989.625
1765544818.6193612,0,0,18187,2273.375
1765544818.6233652,0,0,14835,1854.375
1765544818.6273587,1,1,10601,1325.125
1765544818.6313598,0,0,7997,999.625
1765544818.635357,0,0,15190,1898.750
1765544818.6393592,0,0,17792,2224.000
1765544818.6433632,0,0,14519,1814.875
1765544818.6474419,0,1,10448,1306.000
1765544818.6513846,0,0,8006,1000.750
1765544818.6553524,0,0,15277,1909.625
1765544818.6593425,0,0,18056,2257.000
1765544818.663363,0,0,14875,1859.375
1765544818.6674013,1,1,10692,1336.500
1765544818.6713662,0,0,7964,995.500
1765544818.675343,0,0,15043,1880.375
1765544818.679342,0,0,18092,2261.500
1765544818.6833658,0,0,15037,1879.625
1765544818.6873643,0,0,10830,1353.750
1765544818.6913688,0,0,7976,997.000
1765544818.6953638,0,0,14925,1865.625
1765544818.6993587,0,0,18186,2273.250
1765544818.7033625,0,0,15257,1907.125
1765544818.7073617,1,1,11008,1376.000
1765544818.711364,0,0,8044,1005.500
1765544818.71536,0,0,14848,1856.000
1765544818.7193604,0,0,18321,2290.125
1765544818.7233703,0,0,15565,1945.625
1765544818.7273788,1,1,11248,1406.000
1765544818.731369,0,0,8007,1000.875
1765544818.7353501,0,0,14552,1819.000
1765544818.739342,0,0,18312,2289.000
1765544818.7433603,0,0,15714,1964.250
1765544818.74736,1,0,11383,1422.875
1765544818.751364,0,0,7940,992.500
1765544818.7553473,0,0,14051,1756.375
1765544818.759345,0,0,18114,2264.250
1765544818.7635365,0,0,15594,1949.250
1765544818.767656,1,0,11311,1413.875
1765544818.7714043,0,0,8457,1057.125
1765544818.7753613,0,0,15172,1896.500
1765544818.7793596,0,0,18916,2364.500
1765544818.7833586,0,0,17017,2127.125
1765544818.7873535,1,1,12521,1565.125
1765544818.791356,0,0,8161,1020.125
1765544818.7953568,0,0,12896,1612.000
1765544818.7993543,0,0,17632,2204.000
1765544818.8033617,0,0,15476,1934.500
1765544818.8073556,0,0,11313,1414.125
1765544818.8113625,0,0,7692,961.500
1765544818.8153644,0,0,12989,1623.625
1765544818.8193588,0,0,18025,2253.125
1765544818.8233511,0,0,16117,2014.625
1765544818.8273427,0,0,11803,1475.375
1765544818.8313475,0,0,7993,999.125
1765544818.8353581,0,0,13022,1627.750
1765544818.8393593,0,0,18160,2270.000
1765544818.8433647,0,0,16464,2058.000
1765544818.8474283,1,1,12108,1513.500
1765544818.8513765,0,0,8028,1003.500
1765544818.855344,0,0,12317,1539.625
1765544818.859356,0,0,17836,2229.500
1765544818.8633633,0,0,16239,2029.875
1765544818.867402,1,1,11956,1494.500
1765544818.8713624,0,0,8004,1000.500
1765544818.875343,0,0,11984,1498.000
1765544818.8793402,0,0,17763,2220.375
1765544818.8833485,0,0,16356,2044.500
1765544818.8873432,1,1,12086,1510.750
1765544818.8913522,0,0,8125,1015.625
1765544818.895359,0,0,11807,1475.875
1765544818.8993587,0,0,17765,2220.625
1765544818.9033628,0,0,16540,2067.500
1765544818.9073596,1,1,12268,1533.500
1765544818.9113612,0,0,8245,1030.625
1765544818.9153593,0,0,11475,1434.375
1765544818.9193573,0,0,17671,2208.875
1765544818.9233613,0,0,16649,2081.125
1765544818.927357,1,0,12401,1550.125
1765544818.9313803,0,0,8297,1037.125
1765544818.9353738,0,0,10904,1363.000
1765544818.939362,0,0,17449,2181.125
1765544818.9433503,0,0,16701,2087.625
1765544818.9473424,0,0,12508,1563.500
1765544818.9513469,0,0,8484,1060.500
1765544818.9553587,0,0,10725,1340.625
1765544818.9593563,0,0,17393,2174.125
1765544818.96335,0,0,16814,2101.750
1765544818.9673734,1,1,12642,1580.250
1765544818.9713492,0,0,8607,1075.875
1765544818.9753602,0,0,10611,1326.375
1765544818.9793594,0,0,17432,2179.000
1765544818.9833612,0,0,17077,2134.625
1765544818.987354,0,0,12914,1614.250
1765544818.9913597,0,0,8782,1097.750
1765544818.9953597,0,0,9862,1232.750
1765544818.9993582,0,0,16689,2086.125
1765544819.0033576,0,0,16527,2065.875
1765544819.0073538,1,0,12568,1571.000
1765544819.011361,0,0,8771,1096.375
1765544819.015356,0,0,10053,1256.625
1765544819.0193565,0,0,17198,2149.750
1765544819.0233617,0,0,17261,2157.625
1765544819.027353,1,1,13182,1647.750
1765544819.0313578,0,0,9106,1138.250
1765544819.0353556,0,0,9758,1219.750
1765544819.039356,0,0,17037,2129.625
1765544819.0433614,0,0,17355,2169.375
1765544819.0474288,1,1,9263,1157.875
1765544819.0513737,0,0,9568,1196.000
1765544819.0553432,0,0,16926,2115.750
1765544819.059343,0,0,17438,2179.750
1765544819.063359,0,0,13465,1683.125
1765544819.0673947,1,1,9414,1176.750
1765544819.0713556,0,0,9514,1189.250
1765544819.0753407,0,0,16942,2117.750
1765544819.0793517,0,0,17697,2212.125
1765544819.0833583,0,0,13792,1724.000
1765544819.0873551,0,0,9665,1208.125
1765544819.0913556,0,0,9445,1180.625
1765544819.0953546,0,0,16933,2116.625
1765544819.099353,0,0,17980,2247.500
1765544819.103358,0,0,14187,1773.375
1765544819.1073546,0,0,9951,1243.875
1765544819.1113584,0,0,9006,1125.750
1765544819.1153543,0,0,16471,2058.875
1765544819.1193507,0,0,17673,2209.125
1765544819.1233573,0,0,13903,1737.875
1765544819.1273549,1,0,9822,1227.750
1765544819.131404,0,0,8524,1065.500
1765544819.1353638,0,0,16092,2011.500
1765544819.1393547,0,0,17689,2211.125
1765544819.1433444,0,0,14047,1755.875
1765544819.1473393,0,0,9954,1244.250
1765544819.151349,0,0,8358,1044.750
1765544819.1553571,0,0,15967,1995.875
1765544819.1593533,0,0,17840,2230.000
1765544819.1633453,0,0,14305,1788.125
1765544819.1673527,1,1,10167,1270.875
1765544819.1713455,0,0,8378,1047.250
1765544819.175357,0,0,15891,1986.375
1765544819.1793547,0,0,17926,2240.750
1765544819.1833568,0,0,14459,1807.375
1765544819.187355,0,0,10290,1286.250
1765544819.1913567,0,0,8016,1002.000
1765544819.1953552,0,0,15455,1931.875
1765544819.1993525,0,0,17901,2237.625
1765544819.2033532,0,0,14584,1823.000
1765544819.2073512,0,0,10415,1301.875
1765544819.2113564,0,0,7703,962.875
1765544819.215343,0,0,14879,1859.875
1765544819.219336,0,0,17724,2215.500
1765544819.2233555,0,0,14549,1818.625
1765544819.2273517,0,0,10446,1305.750
1765544819.2313557,0,0,7738,967.250
1765544819.2353508,0,0,14817,1852.125
1765544819.239352,0,0,17844,2230.500
1765544819.2433574,0,0,14757,1844.625
1765544819.247421,1,0,10604,1325.500
1765544819.2513695,0,0,7805,975.625
1765544819.2553434,0,0,14923,1865.375
1765544819.2593393,0,0,18157,2269.625
1765544819.2633545,0,0,15251,1906.375
1765544819.2673905,1,1,10970,1371.250
1765544819.271354,0,0,7819,977.375
1765544819.2753344,0,0,14460,1807.500
1765544819.2793381,0,0,17934,2241.750
1765544819.2833595,0,0,15072,1884.000
1765544819.2873569,1,1,10860,1357.500
1765544819.2913544,0,0,7526,940.750
1765544819.295353,0,0,13711,1713.875
1765544819.2993524,0,0,17627,2203.375
1765544819.3033588,0,0,14968,1871.000
1765544819.307355,1,1,10857,1357.125
1765544819.3113546,0,0,7643,955.375
1765544819.315354,0,0,13848,1731.000
1765544819.319359,0,0,17910,2238.750
1765544819.3233547,0,0,15335,1916.875
1765544819.3273382,1,1,11098,1387.250
1765544819.3313453,0,0,7731,966.375
1765544819.3353524,0,0,13723,1715.375
1765544819.3393521,0,0,18002,2250.250
1765544819.3433423,0,0,15590,1948.750
1765544819.3473365,0,0,11309,1413.625
1765544819.3513436,0,0,7707,963.375
1765544819.355353,0,0,13395,1674.375
1765544819.35935,0,0,18020,2252.500
1765544819.3633513,0,0,15836,1979.500
1765544819.3673692,0,0,11527,1440.875
1765544819.3713565,0,0,7734,966.750
1765544819.3753538,0,0,12967,1620.875
1765544819.3793485,0,0,17928,2241.000
1765544819.383352,0,0,15936,1992.000
1765544819.3873494,0,0,11643,1455.375
1765544819.3913548,0,0,7911,988.875
1765544819.3953364,0,0,13021,1627.625
1765544819.399331,0,0,18053,2256.625
1765544819.403352,0,0,16203,2025.375
1765544819.407349,0,0,11866,1483.250
1765544819.411357,0,0,7947,993.375
1765544819.4153535,0,0,12639,1579.875
1765544819.4193494,0,0,17976,2247.000
1765544819.4233513,0,0,16332,2041.500
1765544819.4273481,0,0,12005,1500.625
1765544819.4313538,0,0,8007,1000.875
1765544819.4353511,0,0,12242,1530.250
1765544819.439348,0,0,17850,2231.250
1765544819.4433546,0,0,16369,2046.125
1765544819.452661,0,0,12670,1583.750
1765544819.4553668,0,0,12670,1583.750
1765544819.4593546,0,0,18161,2270.125
1765544819.4633536,0,0,16923,2115.375
1765544819.467384,1,0,12566,1570.750
1765544819.4713614,0,0,8365,1045.625
1765544819.4753525,0,0,11667,1458.375
1765544819.479353,0,0,17698,2212.250
1765544819.4833438,0,0,16591,2073.875
1765544819.4873457,0,0,12321,1540.125
1765544819.4913414,0,0,8201,1025.125
1765544819.4953506,0,0,10984,1373.000
1765544819.4993508,0,0,17440,2180.000
1765544819.5033603,0,0,16622,2077.750
1765544819.507355,0,0,12413,1551.625
1765544819.5113518,0,0,8413,1051.625
1765544819.515333,0,0,11208,1401.000
1765544819.51933,0,0,17633,2204.125
1765544819.5233512,0,0,16945,2118.125
1765544819.5273623,0,1,12707,1588.375
1765544819.5313547,0,0,8472,1059.000
1765544819.535338,0,0,10022,1252.750
1765544819.5393295,0,0,16877,2109.625
1765544819.5433583,0,0,16520,2065.000
1765544819.5473528,0,0,12464,1558.000
1765544819.5513504,0,0,8457,1057.125
1765544819.5553484,0,0,9605,1200.625
1765544819.5593476,0,0,16633,2079.125
1765544819.5633519,0,0,16555,2069.375
1765544819.567365,0,0,12585,1573.125
1765544819.5713537,0,0,8702,1087.750
1765544819.575337,0,0,10034,1254.250
1765544819.5793414,0,0,17130,2141.250
1765544819.5833385,0,0,17108,2138.500
1765544819.5873318,0,0,8964,1120.500
1765544819.591337,0,0,9803,1225.375
1765544819.595348,0,0,17002,2125.250
1765544819.5993433,0,0,17184,2148.000
1765544819.6033487,0,0,13140,1642.500
1765544819.607344,1,1,9078,1134.750
1765544819.6113493,0,0,9444,1180.500
1765544819.6153476,0,0,16884,2110.500
1765544819.619346,0,0,17446,2180.750
1765544819.623348,0,0,13489,1686.125
1765544819.6273427,0,0,9362,1170.250
1765544819.6313443,0,0,9323,1165.375
1765544819.635343,0,0,16789,2098.625
1765544819.639582,0,0,17521,2190.125
1765544819.6434102,0,0,13608,1701.000
1765544819.6489313,0,0,9517,1189.625
1765544819.6515925,0,0,9878,1234.750
1765544819.6577032,0,0,17181,2147.625
1765544819.6599293,0,0,18008,2251.000
1765544819.6635835,0,0,14151,1768.875
1765544819.6674895,1,0,9878,1234.750
1765544819.671426,0,0,9540,1192.500
1765544819.675447,0,0,16952,2119.000
1765544819.679514,0,0,18067,2258.375
1765544819.6834753,0,0,14320,1790.000
1765544819.687578,0,0,10042,1255.250
1765544819.6915152,0,0,9293,1161.625
1765544819.6955724,0,0,16728,2091.000
1765544819.6994624,0,0,18001,2250.125
1765544819.7033796,0,0,14295,1786.875
1765544819.707333,1,1,10050,1256.250
1765544819.711331,0,0,8384,1048.000
1765544819.715331,0,0,15855,1981.875
1765544819.7193303,0,0,17555,2194.375
1765544819.7236285,1,1,13947,1743.375
1765544819.7273366,1,1,9872,1234.000
1765544819.731335,0,0,8004,1000.500
1765544819.7353306,0,0,15580,1947.500
1765544819.7393296,0,0,17665,2208.125
1765544819.743333,0,0,14196,1774.500
1765544819.7473273,1,1,10084,1260.500
1765544819.7513328,0,0,7888,986.000
1765544819.7553415,0,0,15267,1908.375
1765544819.7593415,0,0,17591,2198.875
1765544819.7635412,0,0,14207,1775.875
1765544819.7680907,0,0,10147,1268.375
1765544819.7713826,0,0,8868,1108.500
1765544819.7753086,0,0,16428,2053.500
1765544819.7793002,0,0,18720,2340.000
1765544819.7833066,0,0,15753,1969.125
1765544819.7872996,0,0,11251,1406.375
1765544819.791299,0,0,7939,992.375
1765544819.7952957,0,0,14658,1832.250
1765544819.799299,0,0,17514,2189.250
1765544819.8033004,0,0,14362,1795.250
1765544819.8072994,1,0,10304,1288.000
1765544819.8113225,0,0,7534,941.750
1765544819.8156228,0,0,14404,1800.500
1765544819.8194757,0,0,17553,2194.125
1765544819.8234332,0,0,14513,1814.125
1765544819.8273838,0,0,10431,1303.875
1765544819.8314629,0,0,7981,997.625
1765544819.8355858,0,0,15224,1903.000
1765544819.8394127,0,0,18355,2294.375
1765544819.8434117,0,0,15563,1945.375
1765544819.8474352,1,1,11178,1397.250
1765544819.8515198,0,0,8150,1018.750
1765544819.8554657,0,0,15022,1877.750
1765544819.8595028,0,0,18339,2292.375
1765544819.863359,0,0,15652,1956.500
1765544819.8673487,0,1,11260,1407.500
1765544819.8714256,0,0,8014,1001.750
1765544819.875465,0,0,14574,1821.750
1765544819.879572,0,0,18204,2275.500
1765544819.883537,0,0,15607,1950.875
1765544819.8875792,0,0,11241,1405.125
1765544819.8914254,0,0,8103,1012.875
1765544819.8954296,0,0,14683,1835.375
1765544819.8994844,0,0,18414,2301.750
1765544819.9034588,0,0,16081,2010.125
1765544819.9075453,0,0,11638,1454.750
1765544819.9113636,0,0,8025,1003.125
1765544819.9153388,0,0,14144,1768.000
1765544819.9193242,0,0,18267,2283.375
1765544819.9233375,0,0,16080,2010.000
1765544819.9273155,0,0,11663,1457.875
1765544819.9315124,0,0,7918,989.750
1765544819.9355705,0,0,13568,1696.000
1765544819.939596,0,0,18056,2257.000
1765544819.9435549,1,1,15943,1992.875
1765544819.9474082,0,0,11571,1446.375
1765544819.9514248,0,0,7893,986.625
1765544819.955505,0,0,13361,1670.125
1765544819.9594429,0,0,18035,2254.375
1765544819.963541,0,1,16050,2006.250
1765544819.9674337,1,0,11680,1460.000
1765544819.9712799,0,0,7824,978.000
1765544819.9752758,0,0,12866,1608.250
1765544819.979312,0,0,17965,2245.625
1765544819.9843504,1,1,16263,2032.875
1765544819.9875324,0,1,11892,1486.500
1765544819.9914093,0,0,8700,1087.500
1765544819.9954257,0,0,14802,1850.250
1765544819.9994102,0,0,18865,2358.125
1765544820.0034306,0,0,18124,2265.500
1765544820.0074854,0,0,13841,1730.125
1765544820.0114748,0,0,9201,1150.125
1765544820.0154781,0,0,13142,1642.750
1765544820.0223582,0,0,16508,2063.500
1765544820.024251,1,1,12101,1512.625
1765544820.0274222,1,0,12101,1512.625
1765544820.0313601,0,0,8102,1012.750
1765544820.0356522,0,0,12323,1540.375
1765544820.0397851,0,0,17915,2239.375
1765544820.0436819,1,1,16818,2102.250
1765544820.047502,0,0,12470,1558.750
1765544820.0514143,0,0,8777,1097.125
1765544820.0571127,0,0,18613,2326.625
1765544820.059611,0,0,18613,2326.625
1765544820.063523,1,1,18439,2304.875
1765544820.0674715,0,0,14404,1800.500
1765544820.071392,0,0,9490,1186.250
1765544820.0754476,0,0,11653,1456.625
1765544820.0794454,0,0,17483,2185.375
1765544820.0833008,0,0,16417,2052.125
1765544820.0872507,0,0,12123,1515.375
1765544820.0912654,0,0,8141,1017.625
1765544820.0954123,0,0,10997,1374.625
1765544820.0993955,0,0,17428,2178.500
1765544820.1033318,0,0,16860,2107.500
1765544820.107287,0,0,12624,1578.000
1765544820.1116383,0,0,10106,1263.250
1765544820.1163068,0,0,16946,2118.250
1765544820.119562,0,0,16599,2074.875
1765544820.1233895,0,0,12455,1556.875
1765544820.1273427,1,0,8468,1058.500
1765544820.1314435,0,0,10678,1334.750
1765544820.1354628,0,0,17399,2174.875
1765544820.1394393,0,0,17311,2163.875
1765544820.1433988,0,0,13170,1646.250
1765544820.1472642,1,0,8814,1101.750
1765544820.1512282,0,0,9163,1145.375
1765544820.1552262,0,0,16407,2050.875
1765544820.159224,0,0,16661,2082.625
1765544820.1632295,0,0,12678,1584.750
1765544820.1672242,0,0,8692,1086.500
1765544820.1712234,0,0,9257,1157.125
1765544820.1752238,0,0,16609,2076.125
1765544820.1792233,0,0,16998,2124.750
1765544820.183227,0,0,13003,1625.375
1765544820.1872308,0,1,8934,1116.750
1765544820.1912267,0,0,9192,1149.000
1765544820.1952236,0,0,16616,2077.000
1765544820.1992257,0,0,17224,2153.000
1765544820.2032351,0,0,13280,1660.000
1765544820.2072296,1,1,9192,1149.000
1765544820.21123,0,0,9152,1144.000
1765544820.2152297,0,0,16563,2070.375
1765544820.2192307,0,0,17317,2164.625
1765544820.2232327,0,0,13411,1676.375
1765544820.2272224,0,0,9326,1165.750
1765544820.231228,0,0,8977,1122.125
1765544820.2356262,0,0,16482,2060.250
1765544820.2394705,0,0,17512,2189.000
1765544820.2433572,0,0,13694,1711.750
1765544820.2475157,0,0,9564,1195.500
1765544820.251456,0,0,9859,1232.375
1765544820.2553556,0,0,17100,2137.500
1765544820.2594004,0,0,18401,2300.125
1765544820.263432,1,1,14893,1861.625
1765544820.2674336,0,0,10420,1302.500
1765544820.2715013,0,0,9779,1222.375
1765544820.275474,0,0,16921,2115.125
1765544820.2795436,0,0,18327,2290.875
1765544820.2834904,1,1,14840,1855.000
1765544820.287458,0,0,10390,1298.750
1765544820.2914085,0,0,9189,1148.625
1765544820.2953875,0,0,16526,2065.750
1765544820.2993083,0,0,18191,2273.875
1765544820.3034825,1,1,14763,1845.375
1765544820.3074796,0,0,10370,1296.250
1765544820.311356,0,0,9112,1139.000
1765544820.3154159,0,0,16445,2055.625
1765544820.3193836,0,0,18283,2285.375
1765544820.3234196,1,1,14985,1873.125
1765544820.3274927,0,0,10553,1319.125
1765544820.3315063,0,0,8531,1066.375
1765544820.3357244,0,0,15857,1982.125
1765544820.3395147,0,0,17941,2242.625
1765544820.3433843,0,1,14594,1824.250
1765544820.347364,1,0,10286,1285.750
1765544820.351414,0,0,8170,1021.250
1765544820.3554435,0,0,15553,1944.125
1765544820.359397,0,0,17955,2244.375
1765544820.363474,1,1,14751,1843.875
1765544820.3674343,0,0,10432,1304.000
1765544820.3714232,0,0,8461,1057.625
1765544820.3781908,0,0,18338,2292.250
1765544820.3800344,0,0,18338,2292.250
1765544820.3833601,1,1,15439,1929.875
1765544820.3873982,1,0,10978,1372.250
1765544820.3913927,0,0,8540,1067.500
1765544820.3954527,0,0,15653,1956.625
1765544820.399385,0,0,18376,2297.000
1765544820.403363,1,1,15638,1954.750
1765544820.4074934,0,0,11156,1394.500
1765544820.4114773,0,0,8467,1058.375
1765544820.4154866,0,0,15485,1935.625
1765544820.419441,0,0,18417,2302.125
1765544820.4234345,1,1,15881,1985.125
1765544820.4274676,1,0,11377,1422.125
1765544820.4314725,0,0,8475,1059.375
1765544820.4354818,0,0,15313,1914.125
1765544820.4394457,0,0,18417,2302.125
1765544820.4434493,1,1,16032,2004.000
1765544820.447489,0,0,11519,1439.875
1765544820.454129,0,0,14954,1869.250
1765544820.456047,0,0,14954,1869.250
1765544820.459459,0,0,18328,2291.000
1765544820.4634585,1,1,16058,2007.250
1765544820.4674783,0,0,11561,1445.125
1765544820.4714801,0,0,8196,1024.500
1765544820.4754753,0,0,14578,1822.250
1765544820.479444,0,0,18209,2276.125
1765544820.4834466,1,1,15992,1999.000
1765544820.4874845,0,0,11515,1439.375
1765544820.4914722,0,0,8035,1004.375
1765544820.495495,0,0,14194,1774.250
1765544820.4994407,0,0,18116,2264.500
1765544820.50334,1,1,16014,2001.750
1765544820.5080986,0,0,11552,1444.000
1765544820.511822,0,0,7942,992.750
1765544820.515903,0,0,13825,1728.125
1765544820.519603,0,0,18053,2256.625
1765544820.523417,1,1,16128,2016.000
1765544820.5274637,0,0,11676,1459.500
1765544820.5314336,0,0,7961,995.125
1765544820.5354466,0,0,13510,1688.750
1765544820.5394125,0,0,18000,2250.000
1765544820.5434432,1,1,16243,2030.375
1765544820.5474377,0,0,11802,1475.250
1765544820.5514503,0,0,8109,1013.625
1765544820.5554516,0,0,13465,1683.125
1765544820.5594366,0,0,18043,2255.375
1765544820.5634272,1,1,16471,2058.875
1765544820.5674586,0,0,12033,1504.125
1765544820.5714352,0,0,8189,1023.625
1765544820.5754352,0,0,13235,1654.375
1765544820.5794156,0,0,18034,2254.250
1765544820.5834475,1,1,16724,2090.500
1765544820.5874388,0,0,12310,1538.750
1765544820.5914447,0,0,8293,1036.625
1765544820.5954502,0,0,12893,1611.625
1765544820.5994473,0,0,17931,2241.375
1765544820.603416,1,1,16738,2092.250
1765544820.6074321,0,0,12350,1543.750
1765544820.611441,0,0,8329,1041.125
1765544820.6154368,0,0,12540,1567.500
1765544820.619409,0,0,17821,2227.625
1765544820.6234245,1,1,16746,2093.250
1765544820.6274357,0,0,12379,1547.375
1765544820.6314273,0,0,8303,1037.875
1765544820.6354365,0,0,12134,1516.750
1765544820.6394167,0,0,17729,2216.125
1765544820.643435,1,1,16927,2115.875
1765544820.6474557,0,0,12618,1577.250
1765544820.651455,0,0,8418,1052.250
1765544820.6554468,0,0,17515,2189.375
1765544820.6594207,0,0,16797,2099.625
1765544820.6634467,1,1,12506,1563.250
1765544820.6674418,0,0,8404,1050.500
1765544820.671495,0,0,11559,1444.875
1765544820.675427,0,0,17587,2198.375
1765544820.6794224,0,0,17225,2153.125
1765544820.6834316,1,1,13015,1626.875
1765544820.6874607,0,0,8719,1089.875
1765544820.69144,0,0,11082,1385.250
1765544820.6954439,0,0,17366,2170.750
1765544820.6994183,0,0,17049,2131.125
1765544820.7034311,1,1,12846,1605.750
1765544820.7073967,0,0,8695,1086.875
1765544820.7113764,0,0,10934,1366.750
1765544820.7153742,0,0,17351,2168.875
1765544820.7193594,0,0,17303,2162.875
1765544820.7233992,1,1,13178,1647.250
1765544820.727391,0,0,8918,1114.750
1765544820.7313762,0,0,10659,1332.375
1765544820.7353795,0,0,17242,2155.250
1765544820.739364,0,0,17392,2174.000
1765544820.7433662,1,1,13326,1665.750
1765544820.7473693,0,0,9059,1132.375
1765544820.751373,0,0,10355,1294.375
1765544820.75537,0,0,17113,2139.125
1765544820.7593598,0,0,17487,2185.875
1765544820.7634547,1,1,13497,1687.125
1765544820.7677739,0,0,9221,1152.625
1765544820.7713852,0,0,10164,1270.500
1765544820.7753615,0,0,17020,2127.500
1765544820.779352,0,0,17587,2198.375
1765544820.7833815,1,1,13671,1708.875
1765544820.7873635,0,0,9378,1172.250
1765544820.7913609,0,0,9912,1239.000
1765544820.795371,0,0,16897,2112.125
1765544820.7993503,0,0,17725,2215.625
1765544820.8033779,1,1,13926,1740.750
1765544820.8073637,0,0,9593,1199.125
1765544820.8113687,0,0,9688,1211.000
1765544820.8153582,0,0,16758,2094.750
1765544820.8193605,0,0,17785,2223.125
1765544820.8233874,1,1,14071,1758.875
1765544820.82737,0,0,9706,1213.250
1765544820.8313754,0,0,9374,1171.750
1765544820.8353698,0,0,16587,2073.375
1765544820.8393624,0,0,17899,2237.375
1765544820.8433669,1,1,14334,1791.750
1765544820.8473759,0,0,9948,1243.500
1765544820.8515303,0,0,9249,1156.125
1765544820.855373,0,0,16429,2053.625
1765544820.8593502,0,0,17820,2227.500
1765544820.863371,1,1,14259,1782.375
1765544820.8673582,0,0,9900,1237.500
1765544820.871371,0,0,8681,1085.125
1765544820.8753676,0,0,16066,2008.250
1765544820.879345,0,0,17819,2227.375
1765544820.8833663,1,1,14403,1800.375
1765544820.8873594,0,0,10042,1255.250
1765544820.8913653,0,0,8594,1074.250
1765544820.895362,0,0,15924,1990.500
1765544820.8993552,0,0,17814,2226.750
1765544820.9033628,1,1,14453,1806.625
1765544820.9073741,0,0,10105,1263.125
1765544820.9113681,0,0,8373,1046.625
1765544820.915366,0,0,15667,1958.375
1765544820.9193563,0,0,17763,2220.375
1765544820.9233892,1,1,14463,1807.875
1765544820.9273748,0,0,10136,1267.000
1765544820.9313765,0,0,8366,1045.750
1765544820.9353716,0,0,15656,1957.000
1765544820.9393826,0,0,18014,2251.750
1765544820.9433677,1,1,14979,1872.375
1765544820.9473586,0,0,10552,1319.000
1765544820.9513733,0,0,8431,1053.875
1765544820.9553657,0,0,15534,1941.750
1765544820.9593534,0,0,18032,2254.000
1765544820.9633584,1,1,15086,1885.750
1765544820.9673622,0,0,10643,1330.375
1765544820.971361,0,0,8143,1017.875
1765544820.9753716,0,0,15138,1892.250
1765544820.9793513,0,0,17935,2241.875
1765544820.9833734,1,1,15079,1884.875
1765544820.9873688,0,0,10658,1332.250
1765544820.9913616,0,0,8156,1019.500
1765544820.9953678,0,0,15098,1887.250
1765544820.999359,0,0,18084,2260.500
1765544821.0033677,1,1,15480,1935.000
1765544821.0073662,0,0,11003,1375.375
1765544821.0113776,0,0,8151,1018.875
1765544821.0153673,0,0,14867,1858.375
1765544821.019349,0,0,18073,2259.125
1765544821.0233579,1,1,15614,1951.750
1765544821.0273678,0,0,11134,1391.750
1765544821.0313678,0,0,8071,1008.875
1765544821.035366,0,0,14577,1822.125
1765544821.0393538,0,0,18039,2254.875
1765544821.0433683,1,1,15735,1966.875
1765544821.0473638,0,0,11254,1406.750
1765544821.0515351,0,0,7949,993.625
1765544821.055358,0,0,14171,1771.375
1765544821.059349,0,0,17924,2240.500
1765544821.0633671,1,1,15699,1962.375
1765544821.0673707,0,0,11237,1404.625
1765544821.0713625,0,0,7886,985.750
1765544821.0753622,0,0,14002,1750.250
1765544821.0793457,0,0,17988,2248.500
1765544821.0833607,1,1,16054,2006.750
1765544821.0873632,0,0,11584,1448.000
1765544821.0913591,0,0,7994,999.250
1765544821.0953608,0,0,13747,1718.375
1765544821.0993505,0,0,17932,2241.500
1765544821.103367,1,1,16104,2013.000
1765544821.1073592,0,0,11641,1455.125
1765544821.1113687,0,0,8027,1003.375
1765544821.1154542,0,0,13568,1696.000
1765544821.1193593,0,0,17942,2242.750
1765544821.1233659,1,1,16340,2042.500
1765544821.1273615,0,0,11889,1486.125
1765544821.131363,0,0,7993,999.125
1765544821.1353667,0,0,12943,1617.875
1765544821.139345,0,0,17715,2214.375
1765544821.1433635,1,1,16134,2016.750
1765544821.147358,0,0,11716,1464.500
1765544821.1513555,0,0,7952,994.000
1765544821.1553574,0,0,12876,1609.500
1765544821.159359,0,0,17802,2225.250
1765544821.1633563,1,1,16578,2072.250
1765544821.1673565,0,0,12181,1522.625
1765544821.1713588,0,0,8156,1019.500
1765544821.1753726,0,0,12577,1572.125
1765544821.1793585,0,0,17738,2217.250
1765544821.183366,1,1,16714,2089.250
1765544821.1873603,0,0,12351,1543.875
1765544821.1913822,0,0,8284,1035.500
1765544821.1953735,0,0,12337,1542.125
1765544821.1993556,0,0,17687,2210.875
1765544821.203365,1,1,12537,1567.125
1765544821.2073584,0,0,8378,1047.250
1765544821.2113652,0,0,12136,1517.000
1765544821.2153692,0,0,17660,2207.500
1765544821.2193453,0,0,17116,2139.500
1765544821.2233639,1,1,12862,1607.750
1765544821.2273777,0,0,8588,1073.500
1765544821.2313752,0,0,11752,1469.000
1765544821.2353737,0,0,17521,2190.125
1765544821.2393467,0,0,17098,2137.250
1765544821.2433665,1,1,12872,1609.000
1765544821.2473645,0,0,8556,1069.500
1765544821.2516806,0,0,11113,1389.125
1765544821.2553725,0,0,17270,2158.750
1765544821.2593477,0,0,16947,2118.375
1765544821.2633545,1,1,12745,1593.125
1765544821.267361,0,0,8535,1066.875
1765544821.271361,0,0,10858,1357.250
1765544821.2753608,0,0,17195,2149.375
1765544821.279344,0,0,17073,2134.125
1765544821.2833612,1,1,12925,1615.625
1765544821.2873604,0,0,8703,1087.875
1765544821.291354,0,0,10752,1344.000
1765544821.2953565,0,0,17192,2149.000
1765544821.2993598,0,0,17386,2173.250
1765544821.3033864,1,1,13356,1669.500
1765544821.307357,0,0,9046,1130.750
1765544821.311356,0,0,10706,1338.250
1765544821.3153698,0,0,17166,2145.750
1765544821.3193624,0,0,17551,2193.875
1765544821.3233547,1,1,13606,1700.750
1765544821.3273504,0,0,9206,1150.750
1765544821.331359,0,0,10018,1252.250
1765544821.3353643,0,0,16824,2103.000
1765544821.3393552,0,0,17307,2163.375
1765544821.343359,1,1,13354,1669.250
1765544821.34736,0,0,9092,1136.500
1765544821.351385,0,0,9739,1217.375
1765544821.3553607,0,0,16735,2091.875
1765544821.3593504,0,0,17579,2197.375
1765544821.3633707,1,1,13797,1724.625
1765544821.3673794,0,0,9430,1178.750
1765544821.37136,0,0,9646,1205.750
1765544821.3753545,0,0,16655,2081.875
1765544821.379355,0,0,17646,2205.750
1765544821.383385,1,1,13937,1742.125
1765544821.3873534,0,0,9568,1196.000
1765544821.391359,0,0,9419,1177.375
1765544821.3953667,0,0,16511,2063.875
1765544821.3993464,0,0,17684,2210.500
1765544821.4033623,1,1,14052,1756.500
1765544821.4073448,0,0,9690,1211.250
1765544821.411363,0,0,9334,1166.750
1765544821.415369,0,0,16455,2056.875
1765544821.4193463,0,0,17902,2237.750
1765544821.4233582,1,1,14480,1810.000
1765544821.4273574,0,0,10032,1254.000
1765544821.4313588,0,0,9153,1144.125
1765544821.4353561,0,0,16270,2033.750
1765544821.4393494,0,0,17849,2231.125
1765544821.4433594,1,1,14461,1807.625
1765544821.4473557,0,0,10031,1253.875
1765544821.4540339,0,0,15970,1996.250
1765544821.4559808,0,0,15970,1996.250
1765544821.4593396,0,0,17795,2224.375
1765544821.463354,1,1,14494,1811.750
1765544821.4673452,0,0,10091,1261.375
1765544821.471349,0,0,8677,1084.625
1765544821.4753547,0,0,15892,1986.500
1765544821.479352,0,0,17938,2242.250
1765544821.4833524,1,1,14831,1853.875
1765544821.4873562,0,0,10365,1295.625
1765544821.4913511,0,0,8582,1072.750
1765544821.4953709,0,0,15753,1969.125
1765544821.4993484,0,0,18014,2251.750
1765544821.5033653,1,1,15092,1886.500
1765544821.507357,0,0,10602,1325.250
1765544821.5113616,0,0,8580,1072.500
1765544821.5154057,0,0,15602,1950.250
1765544821.5195687,0,0,17973,2246.625
1765544821.5233572,1,1,15084,1885.500
1765544821.5273497,0,0,10603,1325.375
1765544821.5313592,0,0,8402,1050.250
1765544821.5353522,0,0,15423,1927.875
1765544821.539337,0,0,18072,2259.000
1765544821.5433502,1,1,15472,1934.000
1765544821.5473363,0,0,10949,1368.625
1765544821.551348,0,0,8334,1041.750
1765544821.555364,0,0,15178,1897.250
1765544821.5593593,0,0,18023,2252.875
1765544821.5632706,1,1,15516,1939.500
1765544821.5672517,0,0,10997,1374.625
1765544821.5712714,0,0,8071,1008.875
1765544821.5761256,0,0,14820,1852.500
1765544821.579415,0,0,17969,2246.125
1765544821.5834148,1,1,15630,1953.750
1765544821.5873997,0,0,11120,1390.000
1765544821.5914233,0,0,8051,1006.375
1765544821.5954106,0,0,14595,1824.375
1765544821.5994017,0,0,17932,2241.500
1765544821.603415,1,1,15698,1962.250
1765544821.607414,0,0,11194,1399.250
1765544821.6114082,0,0,7909,988.625
1765544821.615426,0,0,14232,1779.000
1765544821.6193907,0,0,17862,2232.750
1765544821.6234033,1,1,15762,1970.250
1765544821.6274269,0,0,11273,1409.125
1765544821.6314213,0,0,7835,979.375
1765544821.635428,0,0,13975,1746.875
1765544821.6393926,0,0,17861,2232.625
1765544821.6434207,1,1,15999,1999.875
1765544821.6474218,0,0,11516,1439.500
1765544821.651579,0,0,7926,990.750
1765544821.655416,0,0,13787,1723.375
1765544821.6593914,0,0,17845,2230.625
1765544821.6634142,1,1,16137,2017.125
1765544821.667431,0,0,11664,1458.000
1765544821.6714227,0,0,7873,984.125
1765544821.675427,0,0,13352,1669.000
1765544821.6793997,0,0,17734,2216.750
1765544821.6833982,1,1,16156,2019.500
1765544821.687439,0,0,11709,1463.625
1765544821.6914234,0,0,7913,989.125
1765544821.6954293,0,0,13242,1655.250
1765544821.699406,0,0,17770,2221.250
1765544821.7034292,1,1,16464,2058.000
1765544821.7076442,0,0,8101,1012.625
1765544821.7114217,0,0,8101,1012.625
1765544821.715413,0,0,13062,1632.750
1765544821.7193978,0,0,17755,2219.375
1765544821.7234018,1,1,16676,2084.500
1765544821.7274146,0,0,12292,1536.500
1765544821.731404,0,0,8181,1022.625
1765544821.7353947,0,0,12652,1581.500
1765544821.7393856,0,0,17615,2201.875
1765544821.7433898,1,1,12205,1525.625
1765544821.7474113,0,0,8089,1011.125
1765544821.7514114,0,0,12247,1530.875
1765544821.7554123,0,0,17522,2190.250
1765544821.7593868,0,0,16724,2090.500
1765544821.7635458,1,1,12406,1550.750
1765544821.768179,0,0,8396,1049.500
1765544821.7715914,0,0,12967,1620.875
1765544821.7754028,0,0,17840,2230.000
1765544821.779364,0,0,17780,2222.500
1765544821.7833927,1,1,13791,1723.875
1765544821.787387,0,0,9055,1131.875
1765544821.7914026,0,0,11568,1446.000
1765544821.795413,0,0,17249,2156.125
1765544821.7993817,0,0,16644,2080.500
1765544821.8034134,1,1,12374,1546.750
1765544821.807413,0,0,8169,1021.125
1765544821.811409,0,0,10919,1364.875
1765544821.815412,0,0,17080,2135.000
1765544821.8194027,0,0,16814,2101.750
1765544821.8234122,1,1,12634,1579.250
1765544821.8274145,0,0,8336,1042.000
1765544821.831413,0,0,10477,1309.625
1765544821.8354182,0,0,16923,2115.375
1765544821.8394077,0,0,16867,2108.375
1765544821.8434172,1,1,12745,1593.125
1765544821.8474073,0,0,8488,1061.000
1765544821.8515697,0,0,10234,1279.250
1765544821.8554163,0,0,16803,2100.375
1765544821.8593907,0,0,16803,2100.375
1765544821.8634086,1,1,12688,1586.000
1765544821.8674269,0,0,8513,1064.125
1765544821.871423,0,0,10101,1262.625
1765544821.8754215,0,0,16798,2099.750
1765544821.8793948,0,0,17097,2137.125
1765544821.8834012,1,1,13084,1635.500
1765544821.887418,0,0,8780,1097.500
1765544821.891432,0,0,9714,1214.250
1765544821.895422,0,0,16639,2079.875
1765544821.8993974,0,0,17251,2156.375
1765544821.9034219,1,1,13356,1669.500
1765544821.9074233,0,0,9067,1133.375
1765544821.9114194,0,0,10122,1265.250
1765544821.9154212,0,0,16834,2104.250
1765544821.919369,0,0,17688,2211.000
1765544821.9235706,1,1,13994,1749.250
1765544821.9274745,0,0,9541,1192.625
1765544821.9314835,0,0,10153,1269.125
1765544821.935523,0,0,16817,2102.125
1765544821.9393547,0,0,17879,2234.875
1765544821.9433706,1,1,14362,1795.250
1765544821.9474013,0,0,9820,1227.500
1765544821.9514456,0,0,9568,1196.000
1765544821.9553978,0,0,16487,2060.875
1765544821.9594517,0,0,17701,2212.625
1765544821.9634116,1,1,14167,1770.875
1765544821.973023,0,0,9572,1196.500
1765544821.9748456,0,0,16505,2063.125
1765544821.9766016,0,0,16505,2063.125
1765544821.9793484,0,0,17986,2248.250
1765544821.9833736,1,1,14753,1844.125
1765544821.9874249,0,0,10191,1273.875
1765544821.991455,0,0,9036,1129.500
1765544821.9954631,0,0,16083,2010.375
1765544821.9997833,0,0,17631,2203.875
1765544822.0034914,1,1,14216,1777.000
1765544822.0073948,0,0,9802,1225.250
1765544822.0113597,0,0,8979,1122.375
1765544822.0153997,0,0,16108,2013.500
1765544822.0193944,0,0,17966,2245.750
1765544822.0233836,1,1,14934,1866.750
1765544822.0274785,0,0,10391,1298.875
1765544822.031406,0,0,8850,1106.250
1765544822.0354648,0,0,15910,1988.750
1765544822.039477,0,0,17916,2239.500
1765544822.0433424,1,1,14934,1866.750
1765544822.0473924,0,0,10407,1300.875
1765544822.0514185,0,0,8425,1053.125
1765544822.055444,0,0,15521,1940.125
1765544822.0594409,0,0,17735,2216.875
1765544822.0634496,1,1,14726,1840.750
1765544822.0674865,0,0,10258,1282.250
1765544822.071514,0,0,8506,1063.250
1765544822.075453,0,0,15616,1952.000
1765544822.0793157,0,0,18036,2254.500
1765544822.0834038,1,1,15467,1933.375
1765544822.0873933,0,0,10911,1363.875
1765544822.0914488,0,0,8660,1082.500
1765544822.0954702,0,0,15503,1937.875
1765544822.0994346,0,0,18010,2251.250
1765544822.1034636,1,1,15489,1936.125
1765544822.1075294,0,0,10934,1366.750
1765544822.111364,0,0,8485,1060.625
1765544822.1153643,0,0,15314,1914.250
1765544822.1193705,0,0,18055,2256.875
1765544822.1234267,1,1,15822,1977.750
1765544822.1274238,0,0,11262,1407.750
1765544822.131494,0,0,8309,1038.625
1765544822.1354117,0,0,14918,1864.750
1765544822.1394968,0,0,17888,2236.000
1765544822.1434138,1,1,15598,1949.750
1765544822.14734,0,0,11062,1382.750
1765544822.1514132,0,0,7994,999.250
1765544822.155379,0,0,14573,1821.625
1765544822.1594028,0,0,17836,2229.500
1765544822.1634476,1,1,15723,1965.375
1765544822.1674626,0,0,11201,1400.125
1765544822.1714845,0,0,8146,1018.250
1765544822.1755269,0,0,14619,1827.375
1765544822.1793995,0,0,17953,2244.125
1765544822.1833622,1,1,16164,2020.500
1765544822.187395,0,0,11650,1456.250
1765544822.1914127,0,0,8120,1015.000
1765544822.1954188,0,0,14203,1775.375
1765544822.1994734,0,0,17824,2228.000
1765544822.2034452,1,1,16083,2010.375
1765544822.2076888,0,0,11585,1448.125
1765544822.2115316,0,0,7922,990.250
1765544822.2153473,0,0,13784,1723.000
1765544822.2193623,0,0,17694,2211.750
1765544822.2233756,1,1,15988,1998.500
1765544822.227434,0,0,11506,1438.250
1765544822.2314746,0,0,7815,976.875
1765544822.2354717,0,0,13463,1682.875
1765544822.2394588,0,0,17637,2204.625
1765544822.2434576,1,1,16103,2012.875
1765544822.2474513,0,0,11643,1455.375
1765544822.2513843,0,0,7925,990.625
1765544822.2554033,0,0,13447,1680.875
1765544822.259353,0,0,17709,2213.625
1765544822.2634203,1,1,16500,2062.500
1765544822.2674882,0,0,12085,1510.625
1765544822.2714603,0,0,8035,1004.375
1765544822.2754683,0,0,17497,2187.125
1765544822.2795107,0,0,16205,2025.625
1765544822.2833595,1,1,11787,1473.375
1765544822.2873583,0,0,7854,981.750
1765544822.291399,0,0,12630,1578.750
1765544822.295438,0,0,17497,2187.125
1765544822.2993834,0,0,16569,2071.125
1765544822.3034418,1,1,12218,1527.250
1765544822.3074183,0,0,8194,1024.250
1765544822.313221,0,0,12780,1597.500
1765544822.315325,0,0,17606,2200.750
1765544822.319314,0,0,17126,2140.750
1765544822.3233902,1,1,12919,1614.875
1765544822.327375,0,0,8498,1062.250
1765544822.3314304,0,0,12183,1522.875
1765544822.3354733,0,0,17379,2172.375
1765544822.3394294,0,0,16783,2097.875
1765544822.3434584,1,1,12519,1564.875
1765544822.3475225,0,0,8282,1035.250
1765544822.3513916,0,0,11851,1481.375
1765544822.3553503,0,0,17299,2162.375
1765544822.3593774,0,0,16953,2119.125
1765544822.3633957,1,1,12768,1596.000
1765544822.367378,0,0,8430,1053.750
1765544822.3714733,0,0,11614,1451.750
1765544822.375409,0,0,17249,2156.125
1765544822.3831918,1,1,13178,1647.250
1765544822.3850253,1,1,13178,1647.250
1765544822.3872635,0,0,8740,1092.500
1765544822.3913918,0,0,11369,1421.125
1765544822.3953662,0,0,17137,2142.125
1765544822.3994148,0,0,17080,2135.000
1765544822.4034197,1,1,12994,1624.250
1765544822.4074554,0,0,8635,1079.375
1765544822.4117203,0,0,11003,1375.375
1765544822.4155223,0,0,17029,2128.625
1765544822.419461,0,0,17265,2158.125
1765544822.4232707,1,1,13308,1663.500
1765544822.4272017,0,0,8771,1096.375
1765544822.4313102,0,0,9195,1149.375
1765544822.4352133,0,0,16092,2011.500
1765544822.4391992,0,0,16257,2032.125
1765544822.4431987,1,1,12189,1523.625
1765544822.447198,0,0,8137,1017.125
1765544822.4665477,1,0,8696,1087.000
1765544822.4683008,0,0,8696,1087.000
1765544822.4712071,0,0,10136,1267.000
1765544822.4751987,0,0,16762,2095.250
1765544822.4791946,0,0,17758,2219.750
1765544822.4832017,1,1,14245,1780.625
1765544822.4871984,0,0,9642,1205.250
1765544822.491199,0,0,9051,1131.375
1765544822.495194,0,0,16047,2005.875
1765544822.499194,0,0,16883,2110.375
1765544822.5031989,1,1,13034,1629.250
1765544822.5071955,0,0,8818,1102.250
1765544822.5111997,0,0,8332,1041.500
1765544822.5151985,0,0,15719,1964.875
1765544822.5191941,0,0,16886,2110.750
1765544822.523197,1,1,13141,1642.625
1765544822.5272038,0,0,8959,1119.875
1765544822.531202,0,0,8321,1040.125
1765544822.5351987,0,0,15706,1963.250
1765544822.539194,0,0,17104,2138.000
1765544822.543205,1,1,13475,1684.375
1765544822.547194,0,0,9210,1151.250
1765544822.5511968,0,0,8119,1014.875
1765544822.555196,0,0,15549,1943.625
1765544822.5591953,0,0,17225,2153.125
1765544822.5631967,1,1,13729,1716.125
1765544822.567195,0,0,9429,1178.625
1765544822.5711954,0,0,7998,999.750
1765544822.5751972,0,0,15389,1923.625
1765544822.5791957,0,0,17264,2158.000
1765544822.5831947,1,1,13853,1731.625
1765544822.5871933,0,0,9555,1194.375
1765544822.5911949,0,0,7960,995.000
1765544822.5951946,0,0,15316,1914.500
1765544822.5991957,0,0,17430,2178.750
1765544822.6032002,1,1,14187,1773.375
1765544822.6071918,0,0,9830,1228.750
1765544822.6111953,0,0,7833,979.125
1765544822.615195,0,0,15097,1887.125
1765544822.6191945,0,0,17468,2183.500
1765544822.6231952,1,1,14361,1795.125
1765544822.6271906,0,0,9980,1247.500
1765544822.631194,0,0,7737,967.125
1765544822.6351936,0,0,14959,1869.875
1765544822.6391933,0,0,17582,2197.750
1765544822.643206,1,1,14672,1834.000
1765544822.6472049,0,0,10243,1280.375
1765544822.651203,0,0,7530,941.250
1765544822.6551929,0,0,14504,1813.000
1765544822.6592004,0,0,17395,2174.375
1765544822.6632822,1,1,14492,1811.500
1765544822.6672184,0,0,10131,1266.375
1765544822.6712046,0,0,7380,922.500
1765544822.6751957,0,0,14254,1781.750
1765544822.679194,0,0,17414,2176.750
1765544822.683204,1,1,14651,1831.375
1765544822.6872041,0,0,10261,1282.625
1765544822.6912103,0,0,7427,928.375
1765544822.6951938,0,0,14236,1779.500
1765544822.6991937,0,0,17578,2197.250
1765544822.7032084,1,1,15056,1882.000
1765544822.707205,0,0,10612,1326.500
1765544822.7112079,0,0,7331,916.375
1765544822.715199,0,0,13689,1711.125
1765544822.719202,0,0,17381,2172.625
1765544822.7232108,1,1,14890,1861.250
1765544822.7272115,0,0,10498,1312.250
1765544822.7312074,0,0,7479,934.875
1765544822.7351942,0,0,13960,1745.000
1765544822.7391922,0,0,17700,2212.500
1765544822.7432039,1,1,15596,1949.500
1765544822.7472024,0,0,11122,1390.250
1765544822.751205,0,0,7541,942.625
1765544822.7551918,0,0,13394,1674.250
1765544822.7591906,0,0,17480,2185.000
1765544822.7634144,1,1,15356,1919.500
1765544822.7674034,0,0,10923,1365.375
1765544822.7712219,0,0,8028,1003.500
1765544822.7752025,0,0,14517,1814.625
1765544822.779201,0,0,18165,2270.625
1765544822.783203,1,1,17201,2150.125
1765544822.7873325,0,0,12851,1606.375
1765544822.7913144,0,0,8296,1037.000
1765544822.7953098,0,0,12799,1599.875
1765544822.7993078,0,0,17317,2164.625
1765544822.803316,1,1,15423,1927.875
1765544822.8073115,0,0,11010,1376.250
1765544822.8113139,0,0,7287,910.875
1765544822.8153167,0,0,12215,1526.875
1765544822.819312,0,0,17212,2151.500
1765544822.823307,1,1,15583,1947.875
1765544822.8273141,0,0,11195,1399.375
1765544822.8314624,0,0,12255,1531.875
1765544822.8354862,0,0,17373,2171.625
1765544822.83934,0,0,16114,2014.250
1765544822.843319,1,1,11728,1466.000
1765544822.8473175,0,0,7650,956.250
1765544822.8513172,0,0,11746,1468.250
1765544822.8553002,0,0,17203,2150.375
1765544822.8593132,0,0,16058,2007.250
1765544822.863387,1,1,11702,1462.750
1765544822.8673065,0,0,7726,965.750
1765544822.8713062,0,0,11691,1461.375
1765544822.875313,0,0,17255,2156.875
1765544822.8793128,0,0,16352,2044.000
1765544822.8833063,1,1,12024,1503.000
1765544822.887336,0,0,7889,986.125
1765544822.8913226,0,0,11295,1411.875
1765544822.8953154,0,0,17136,2142.000
1765544822.8993099,0,0,16408,2051.000
1765544822.9033203,1,1,12118,1514.750
1765544822.907295,0,0,7970,996.250
1765544822.9113016,0,0,10888,1361.000
1765544822.9153104,0,0,16983,2122.875
1765544822.9193099,0,0,16368,2046.000
1765544822.9233122,1,1,12106,1513.250
1765544822.9273117,0,0,7965,995.625
1765544822.931315,0,0,10416,1302.000
1765544822.9353178,0,0,16829,2103.625
1765544822.9393106,0,0,16457,2057.125
1765544822.943312,1,1,12248,1531.000
1765544822.9472978,0,0,8143,1017.875
1765544822.9512982,0,0,10277,1284.625
1765544822.9553115,0,0,16789,2098.625
1765544822.9593093,0,0,16570,2071.250
1765544822.9633014,1,1,12393,1549.125
1765544822.967294,0,0,8274,1034.250
1765544822.9713068,0,0,10109,1263.625
1765544822.9753206,0,0,16799,2099.875
1765544822.9793184,0,0,16993,2124.125
1765544822.9833186,1,1,12945,1618.125
1765544822.987346,0,0,8672,1084.000
1765544822.9913185,0,0,9869,1233.625
1765544822.9953148,0,0,16648,2081.000
1765544822.9993138,0,0,16902,2112.750
1765544823.0033143,1,1,12862,1607.750
1765544823.0073102,0,0,8633,1079.125
1765544823.01131,0,0,9308,1163.500
1765544823.0153134,0,0,16376,2047.000
1765544823.0193112,0,0,16848,2106.000
1765544823.0233142,1,1,12865,1608.125
1765544823.0273087,0,0,8669,1083.625
1765544823.0313146,0,0,8805,1100.625
1765544823.0353134,0,0,16120,2015.000
1765544823.039313,0,0,16891,2111.375
1765544823.0433152,1,1,12997,1624.625
1765544823.047307,0,0,8839,1104.875
1765544823.0513093,0,0,8930,1116.250
1765544823.0553122,0,0,16220,2027.500
1765544823.0593104,0,0,17236,2154.500
1765544823.0633929,1,1,13470,1683.750
1765544823.0673256,0,0,9192,1149.000
1765544823.0713172,0,0,8877,1109.625
1765544823.075292,0,0,16148,2018.500
1765544823.0792964,0,0,17328,2166.000
1765544823.0833116,1,1,13637,1704.625
1765544823.0873296,0,0,9339,1167.375
1765544823.0913124,0,0,8547,1068.375
1765544823.095297,0,0,15917,1989.625
1765544823.0992923,0,0,17368,2171.000
1765544823.103316,1,1,13786,1723.250
1765544823.1073105,0,0,9489,1186.125
1765544823.1113136,0,0,8320,1040.000
1765544823.1153085,0,0,15685,1960.625
1765544823.1193087,0,0,17305,2163.125
1765544823.1233118,1,1,13762,1720.250
1765544823.1273074,0,0,9505,1188.125
1765544823.131312,0,0,8176,1022.000
1765544823.1353137,0,0,15565,1945.625
1765544823.1393092,0,0,17446,2180.750
1765544823.1433103,1,1,14052,1756.500
1765544823.147308,0,0,9731,1216.375
1765544823.1513145,0,0,7809,976.125
1765544823.1553175,0,0,15141,1892.625
1765544823.1593199,0,0,17316,2164.500
1765544823.1633039,1,1,13988,1748.500
1765544823.1672895,0,0,9715,1214.375
1765544823.1712968,0,0,7776,972.000
1765544823.1753113,0,0,15137,1892.125
1765544823.1793058,0,0,17565,2195.625
1765544823.183294,1,1,14459,1807.375
1765544823.1872933,0,0,10087,1260.875
1765544823.1913111,0,0,7783,972.875
1765544823.1953115,0,0,14930,1866.250
1765544823.1993086,0,0,17528,2191.000
1765544823.2033093,1,1,14475,1809.375
1765544823.2073033,0,0,10113,1264.125
1765544823.2113106,0,0,7702,962.750
1765544823.215314,0,0,14806,1850.750
1765544823.2193093,0,0,17651,2206.375
1765544823.2233093,1,1,14809,1851.125
1765544823.227306,0,0,10396,1299.500
1765544823.2313085,0,0,7614,951.750
1765544823.2353098,0,0,14474,1809.250
1765544823.2393136,0,0,17588,2198.500
1765544823.2433147,1,1,14840,1855.000
1765544823.2473068,0,0,10435,1304.375
1765544823.2513096,0,0,7490,936.250
1765544823.2553144,0,0,14203,1775.375
1765544823.259308,0,0,17600,2200.000
1765544823.263395,1,1,15027,1878.375
1765544823.2673209,0,0,10607,1325.875
1765544823.2713132,0,0,7797,974.625
1765544823.2752917,0,0,14494,1811.750
1765544823.2792923,0,0,17898,2237.250
1765544823.2833068,1,1,15680,1960.000
1765544823.2873247,0,0,11179,1397.375
1765544823.2913084,0,0,7607,950.875
1765544823.2952952,0,0,13612,1701.500
1765544823.2992897,0,0,17497,2187.125
1765544823.3033116,1,1,15155,1894.375
1765544823.3073077,0,0,10746,1343.250
1765544823.3113058,0,0,7337,917.125
1765544823.315305,0,0,13276,1659.500
1765544823.319306,0,0,17493,2186.625
1765544823.323298,1,1,15376,1922.000
1765544823.3272898,0,0,10955,1369.375
1765544823.3312917,0,0,7418,927.250
1765544823.335305,0,0,13063,1632.875
1765544823.3393042,0,0,17500,2187.500
1765544823.343308,1,1,15565,1945.625
1765544823.3473034,0,0,11144,1393.000
1765544823.3513117,0,0,7499,937.375
1765544823.3553138,0,0,12906,1613.250
1765544823.3593102,0,0,17544,2193.000
1765544823.3632963,1,1,15851,1981.375
1765544823.3672879,0,0,11424,1428.000
1765544823.3712947,0,0,7624,953.000
1765544823.3753016,0,0,17480,2185.000
1765544823.3792977,0,0,15922,1990.250
1765544823.3833005,1,1,11512,1439.000
1765544823.387334,0,0,7614,951.750
1765544823.3913066,0,0,12177,1522.125
1765544823.395329,0,0,17369,2171.125
1765544823.3993094,0,0,15982,1997.750
1765544823.4033067,1,1,11600,1450.000
1765544823.407304,0,0,7774,971.750
1765544823.4113092,0,0,12242,1530.250
1765544823.415309,0,0,17482,2185.250
1765544823.4193013,0,0,16376,2047.000
1765544823.4233046,1,1,12004,1500.500
1765544823.4273012,0,0,7948,993.500
1765544823.4313078,0,0,11840,1480.000
1765544823.4353068,0,0,17356,2169.500
1765544823.4393046,0,0,16388,2048.500
1765544823.4433062,1,1,12046,1505.750
1765544823.447303,0,0,7979,997.375
1765544823.4513047,0,0,11540,1442.500
1765544823.455306,0,0,17299,2162.375
1765544823.4593048,0,0,16598,2074.750
1765544823.4687626,0,0,8221,1027.625
1765544823.4713383,0,0,11738,1467.250
1765544823.475288,0,0,17433,2179.125
1765544823.4792898,0,0,17081,2135.125
1765544823.4833095,1,1,12884,1610.500
1765544823.4873452,0,0,8478,1059.750
1765544823.4913042,0,0,10675,1334.375
1765544823.495288,0,0,16950,2118.750
1765544823.4992886,0,0,16536,2067.000
1765544823.503311,1,1,12314,1539.250
1765544823.5073016,0,0,8189,1023.625
1765544823.5113049,0,0,10413,1301.625
1765544823.5153017,0,0,16925,2115.625
1765544823.5193021,0,0,16848,2106.000
1765544823.523306,1,1,12712,1589.000
1765544823.527302,0,0,8502,1062.750
1765544823.5313003,0,0,10361,1295.125
1765544823.535305,0,0,16924,2115.500
1765544823.5392997,0,0,17081,2135.125
1765544823.543307,1,1,13023,1627.875
1765544823.5473027,0,0,8716,1089.500
1765544823.5513058,0,0,9921,1240.125
1765544823.5553029,0,0,16726,2090.750
1765544823.5592995,0,0,17090,2136.250
1765544823.5633051,1,1,13095,1636.875
1765544823.5673041,0,0,8810,1101.250
1765544823.5713053,0,0,9454,1181.750
1765544823.5752883,0,0,16479,2059.875
1765544823.5792885,0,0,17003,2125.375
1765544823.5832868,1,1,13043,1630.375
1765544823.5873,0,0,8847,1105.875
1765544823.5912921,0,0,9423,1177.875
1765544823.5953007,0,0,16499,2062.375
1765544823.5992987,0,0,17299,2162.375
1765544823.60329,1,1,13469,1683.625
1765544823.607285,0,0,9149,1143.625
1765544823.611292,0,0,8950,1118.750
1765544823.6153173,0,0,16183,2022.875
1765544823.6193004,0,0,17133,2141.625
1765544823.6233006,1,1,13321,1665.125
1765544823.6272976,0,0,9114,1139.250
1765544823.6313045,0,0,8901,1112.625
1765544823.6353018,0,0,16199,2024.875
1765544823.6392996,0,0,17469,2183.625
1765544823.643299,1,1,13845,1730.625
1765544823.6472964,0,0,9496,1187.000
1765544823.6512988,0,0,8628,1078.500
1765544823.6553051,0,0,15953,1994.125
1765544823.6592999,0,0,17395,2174.375
1765544823.6633017,1,1,13809,1726.125
1765544823.667378,0,0,9523,1190.375
1765544823.6713145,0,0,8889,1111.125
1765544823.6753032,0,0,16120,2015.000
1765544823.6793008,0,0,17741,2217.625
1765544823.6832995,1,1,14369,1796.125
1765544823.687316,0,0,9938,1242.250
1765544823.6913056,0,0,8353,1044.125
1765544823.69529,0,0,15641,1955.125
1765544823.6993015,0,0,17530,2191.250
1765544823.7033086,1,1,14173,1771.625
1765544823.7073119,0,0,9835,1229.375
1765544823.7113047,0,0,8389,1048.625
1765544823.7153003,0,0,15669,1958.625
1765544823.7193131,0,0,17766,2220.750
1765544823.7233136,1,1,14632,1829.000
1765544823.727303,0,0,10196,1274.500
1765544823.7313142,0,0,8066,1008.250
1765544823.735288,0,0,15270,1908.750
1765544823.7392976,0,0,17662,2207.750
1765544823.7433045,1,1,14609,1826.125
1765544823.7473006,0,0,10199,1274.875
1765544823.7512996,0,0,7926,990.750
1765544823.7552934,0,0,15087,1885.875
1765544823.7592838,0,0,17713,2214.125
1765544823.76349,1,1,14820,1852.500
1765544823.7675629,0,0,10388,1298.500
1765544823.7713642,0,0,8320,1040.000
1765544823.7753036,0,0,15384,1923.000
1765544823.779306,0,0,18024,2253.000
1765544823.7833006,1,1,15455,1931.875
1765544823.787352,0,0,10917,1364.625
1765544823.7913043,0,0,7813,976.625
1765544823.7953033,0,0,14503,1812.875
1765544823.799297,0,0,17598,2199.750
1765544823.8033128,1,1,14890,1861.250
1765544823.8073,0,0,10468,1308.500
1765544823.8112996,0,0,7534,941.750
1765544823.8152947,0,0,14243,1780.375
1765544823.819308,0,0,17624,2203.000
1765544823.8232915,1,1,15109,1888.625
1765544823.8272953,0,0,10669,1333.625
1765544823.831293,0,0,7500,937.500
1765544823.8353128,0,0,13937,1742.125
1765544823.8392975,0,0,17574,2196.750
1765544823.843297,1,1,15169,1896.125
1765544823.8472967,0,0,10735,1341.875
1765544823.8513064,0,0,7547,943.375
1765544823.8552983,0,0,13879,1734.875
1765544823.859295,0,0,17699,2212.375
1765544823.863299,1,1,15574,1946.750
1765544823.8673937,0,0,11106,1388.250
1765544823.871323,0,0,7689,961.125
1765544823.875292,0,0,13806,1725.750
1765544823.8792832,0,0,17781,2222.625
1765544823.8833172,1,1,15928,1991.000
1765544823.8873343,0,0,11450,1431.250
1765544823.8913026,0,0,7714,964.250
1765544823.8952858,0,0,13289,1661.125
1765544823.8992946,0,0,17590,2198.750
1765544823.9032989,1,1,15735,1966.875
1765544823.907298,0,0,11287,1410.875
1765544823.9113011,0,0,7615,951.875
1765544823.9153,0,0,17563,2195.375
1765544823.9193,0,0,15917,1989.625
1765544823.923302,1,1,11484,1435.500
1765544823.92728,0,0,7591,948.875
1765544823.9312875,0,0,12477,1559.625
1765544823.9353027,0,0,17412,2176.500
1765544823.9393005,0,0,15892,1986.500
1765544823.9433053,1,1,11486,1435.750
1765544823.947297,0,0,7606,950.750
1765544823.9513075,0,0,12222,1527.750
1765544823.955307,0,0,17387,2173.375
1765544823.959299,0,0,16076,2009.500
1765544823.9632924,1,1,11691,1461.375
1765544823.9672828,0,0,7795,974.375
1765544823.9712985,0,0,12182,1522.750
1765544823.9753017,0,0,17440,2180.000
1765544823.9793,0,0,16371,2046.375
1765544823.9832947,1,1,12013,1501.625
1765544823.9873154,0,0,7884,985.500
1765544823.9912894,0,0,11491,1436.375
1765544823.9952984,0,0,17198,2149.750
1765544823.9992962,0,0,16263,2032.875
1765544824.0032969,1,1,11936,1492.000
1765544824.007298,0,0,7861,982.625
1765544824.0112977,0,0,11221,1402.625
1765544824.0152962,0,0,17147,2143.375
1765544824.019293,0,0,16438,2054.750
1765544824.023301,1,1,12153,1519.125
1765544824.0272977,0,0,8062,1007.750
1765544824.031296,0,0,11177,1397.125
1765544824.0352912,0,0,17178,2147.250
1765544824.039292,0,0,16685,2085.625
1765544824.0432978,1,1,12441,1555.125
1765544824.0472946,0,0,8220,1027.500
1765544824.0512924,0,0,10631,1328.875
1765544824.0552952,0,0,16961,2120.125
1765544824.0592937,0,0,16619,2077.375
1765544824.063297,1,1,12415,1551.875
1765544824.0673723,0,0,8357,1044.625
1765544824.0713205,0,0,11193,1399.125
1765544824.0752852,0,0,17272,2159.000
1765544824.0792804,0,0,17366,2170.750
1765544824.0832944,1,1,13328,1666.000
1765544824.0873342,0,0,8873,1109.125
1765544824.0913,0,0,10132,1266.500
1765544824.0952857,0,0,16716,2089.500
1765544824.09929,0,0,16665,2083.125
1765544824.1032996,1,1,12529,1566.125
1765544824.1072981,0,0,8426,1053.250
1765544824.1113045,0,0,9779,1222.375
1765544824.1153011,0,0,16642,2080.250
1765544824.1192994,0,0,16941,2117.625
1765544824.1233008,1,1,12915,1614.375
1765544824.1272979,0,0,8727,1090.875
1765544824.1312969,0,0,9809,1226.125
1765544824.1352997,0,0,16693,2086.625
1765544824.1392996,0,0,17314,2164.250
1765544824.143303,1,1,13431,1678.875
1765544824.1472995,0,0,9103,1137.875
1765544824.1512995,0,0,9552,1194.000
1765544824.1552825,0,0,16527,2065.875
1765544824.1592958,0,0,17278,2159.750
1765544824.1632998,1,1,13429,1678.625
1765544824.1672962,0,0,9139,1142.375
1765544824.171298,0,0,9353,1169.125
1765544824.1752796,0,0,16443,2055.375
1765544824.1792815,0,0,17497,2187.125
1765544824.1833003,1,1,13811,1726.375
1765544824.1873345,0,0,9450,1181.250
1765544824.1912966,0,0,9139,1142.375
1765544824.195291,0,0,16278,2034.750
1765544824.1992936,0,0,17508,2188.500
1765544824.2032962,1,1,13890,1736.250
1765544824.2072952,0,0,9529,1191.125
1765544824.2112956,0,0,8806,1100.750
1765544824.2152953,0,0,16055,2006.875
1765544824.2192936,0,0,17507,2188.375
1765544824.2232985,1,1,13974,1746.750
1765544824.2272952,0,0,9627,1203.375
1765544824.2313015,0,0,8612,1076.500
1765544824.2352953,0,0,15886,1985.750
1765544824.2392938,0,0,17542,2192.750
1765544824.2432985,1,1,14104,1763.000
1765544824.247295,0,0,9745,1218.125
1765544824.2512982,0,0,8480,1060.000
1765544824.255297,0,0,15775,1971.875
1765544824.2592943,0,0,17686,2210.750
1765544824.2632954,1,1,14435,1804.375
1765544824.2673733,0,0,10017,1252.125
1765544824.271318,0,0,8436,1054.500
1765544824.2752848,0,0,15669,1958.625
1765544824.279277,0,0,17772,2221.500
1765544824.283294,1,1,14666,1833.250
1765544824.2873306,0,0,10220,1277.500
1765544824.2913017,0,0,8177,1022.125
1765544824.2952826,0,0,15291,1911.375
1765544824.2992756,0,0,17573,2196.625
1765544824.3032973,1,1,14428,1803.500
1765544824.3072934,0,0,10044,1255.500
1765544824.3112984,0,0,7866,983.250
1765544824.315296,0,0,15036,1879.500
1765544824.3192937,0,0,17627,2203.375
1765544824.3232853,1,1,14673,1834.125
1765544824.3272748,0,0,10259,1282.375
1765544824.3312929,0,0,7643,955.375
1765544824.3353078,0,0,14604,1825.500
1765544824.3392951,0,0,17503,2187.875
1765544824.3432844,1,1,14616,1827.000
1765544824.3472762,0,0,10235,1279.375
1765544824.3512824,0,0,7581,947.625
1765544824.3553076,0,0,14502,1812.750
1765544824.359294,0,0,17637,2204.625
1765544824.3632867,1,1,14983,1872.875
1765544824.3672752,0,0,10549,1318.625
1765544824.3712971,0,0,7680,960.000
1765544824.3752952,0,0,14350,1793.750
1765544824.3792996,0,0,17651,2206.375
1765544824.3832996,1,1,15108,1888.500
1765544824.3873322,0,0,10665,1333.125
1765544824.3912957,0,0,7696,962.000
1765544824.3952944,0,0,14245,1780.625
1765544824.3992956,0,0,17751,2218.875
1765544824.4032967,1,1,15463,1932.875
1765544824.4072926,0,0,10985,1373.125
1765544824.4112937,0,0,7547,943.375
1765544824.415276,0,0,13630,1703.750
1765544824.4192758,0,0,17541,2192.625
1765544824.4232929,1,1,15296,1912.000
1765544824.4272943,0,0,10864,1358.000
1765544824.4312935,0,0,7368,921.000
1765544824.4352925,0,0,13191,1648.875
1765544824.4392886,0,0,17445,2180.625
1765544824.4432952,1,1,15336,1917.000
1765544824.4472923,0,0,10919,1364.875
1765544824.4512947,0,0,7491,936.375
1765544824.4552906,0,0,13223,1652.875
1765544824.459289,0,0,17562,2195.250
1765544824.4632952,1,1,11224,1403.000
1765544824.4726882,0,0,13241,1655.125
1765544824.4753175,0,0,17690,2211.250
1765544824.4792907,0,0,16117,2014.625
1765544824.4832864,1,1,11669,1458.625
1765544824.4872675,0,0,7762,970.250
1765544824.4912765,0,0,12610,1576.250
1765544824.4952748,0,0,17450,2181.250
1765544824.4992712,0,0,15880,1985.000
1765544824.5032766,1,1,11465,1433.125
1765544824.5072877,0,0,7636,954.500
1765544824.5112827,0,0,12145,1518.125
1765544824.5153008,0,0,17329,2166.125
1765544824.519294,0,0,15930,1991.250
1765544824.5232947,1,1,11543,1442.875
1765544824.5272899,0,0,7633,954.125
1765544824.5312989,0,0,11838,1479.750
1765544824.535301,0,0,17307,2163.375
1765544824.5392978,0,0,16200,2025.000
1765544824.5432837,1,1,11843,1480.375
1765544824.5472744,0,0,7873,984.125
1765544824.551283,0,0,11646,1455.750
1765544824.5552952,0,0,17263,2157.875
1765544824.5592916,0,0,16291,2036.375
1765544824.563282,1,1,11953,1494.125
1765544824.5672715,0,0,7989,998.625
1765544824.5712779,0,0,11616,1452.000
1765544824.5752752,0,0,17325,2165.625
1765544824.5792735,0,0,16647,2080.875
1765544824.58329,1,1,12358,1544.750
1765544824.5873232,0,0,8178,1022.250
1765544824.591293,0,0,11130,1391.250
1765544824.5952938,0,0,17165,2145.625
1765544824.5992908,0,0,16704,2088.000
1765544824.6032922,1,1,12466,1558.250
1765544824.6072881,0,0,8272,1034.000
1765544824.6112897,0,0,10748,1343.500
1765544824.615287,0,0,17018,2127.250
1765544824.6192875,0,0,16692,2086.500
1765544824.6232898,1,1,12488,1561.000
1765544824.6272874,0,0,8311,1038.875
1765544824.63129,0,0,10335,1291.875
1765544824.635288,0,0,16863,2107.875
1765544824.639289,0,0,16736,2092.000
1765544824.6432939,1,1,12589,1573.625
1765544824.6472907,0,0,8385,1048.125
1765544824.6512902,0,0,9564,1195.500
1765544824.6552727,0,0,16471,2058.875
1765544824.6592786,0,0,16512,2064.000
1765544824.663292,1,1,12402,1550.250
1765544824.6672893,0,0,8377,1047.125
1765544824.6713703,0,0,9980,1247.500
1765544824.6753016,0,0,16800,2100.000
1765544824.6792834,0,0,17254,2156.750
1765544824.683291,1,1,13307,1663.375
1765544824.687328,0,0,9008,1126.000
1765544824.6912916,0,0,9818,1227.250
1765544824.6952925,0,0,16666,2083.250
1765544824.6992817,0,0,17195,2149.375
1765544824.7032914,1,1,13256,1657.000
1765544824.70729,0,0,9010,1126.250
1765544824.7112935,0,0,9484,1185.500
1765544824.7152925,0,0,16515,2064.375
1765544824.7192857,0,0,17317,2164.625
1765544824.7232904,1,1,13489,1686.125
1765544824.727288,0,0,9205,1150.625
1765544824.7312877,0,0,9322,1165.250
1765544824.7352781,0,0,16426,2053.250
1765544824.739305,0,0,17481,2185.125
1765544824.7434154,1,1,13778,1722.250
1765544824.747288,0,0,9425,1178.125
1765544824.751289,0,0,8878,1109.750
1765544824.7552893,0,0,16102,2012.750
1765544824.7592888,0,0,17274,2159.250
1765544824.7634468,1,1,13559,1694.875
1765544824.7675354,0,0,9341,1167.625
1765544824.771341,0,0,9559,1194.875
1765544824.7752929,0,0,16558,2069.750
1765544824.7792878,0,0,18115,2264.375
1765544824.7832868,1,1,14959,1869.875
1765544824.7873285,0,0,10378,1297.250
1765544824.7912862,0,0,8733,1091.625
1765544824.7952886,0,0,15799,1974.875
1765544824.799285,0,0,17351,2168.875
1765544824.8032892,1,1,13797,1724.625
1765544824.8072848,0,0,9522,1190.250
1765544824.8112907,0,0,8203,1025.375
1765544824.8152735,0,0,15587,1948.375
1765544824.8192706,0,0,17541,2192.625
1765544824.823293,1,1,14222,1777.750
1765544824.8272767,0,0,9868,1233.500
1765544824.831281,0,0,8132,1016.500
1765544824.8352885,0,0,15411,1926.375
1765544824.8392894,0,0,17591,2198.875
1765544824.8432894,1,1,14395,1799.375
1765544824.8472862,0,0,10011,1251.375
1765544824.8512828,0,0,7887,985.875
1765544824.855282,0,0,15091,1886.375
1765544824.8592858,0,0,17498,2187.250
1765544824.863288,1,1,14355,1794.375
1765544824.867285,0,0,10001,1250.125
1765544824.871369,0,0,7751,968.875
1765544824.8753006,0,0,14934,1866.750
1765544824.879284,0,0,17616,2202.000
1765544824.883278,1,1,14676,1834.500
1765544824.8873084,0,0,10273,1284.125
1765544824.8912783,0,0,7827,978.375
1765544824.8952856,0,0,14842,1855.250
1765544824.8992817,0,0,17704,2213.000
1765544824.9032764,1,1,14926,1865.750
1765544824.90727,0,0,10487,1310.875
1765544824.9112842,0,0,7884,985.500
1765544824.9152882,0,0,14769,1846.125
1765544824.919283,0,0,17810,2226.250
1765544824.923295,1,1,15246,1905.750
1765544824.9272935,0,0,10769,1346.125
1765544824.9312937,0,0,7898,987.250
1765544824.9352705,0,0,14536,1817.000
1765544824.9392862,0,0,17761,2220.125
1765544824.943281,1,1,15268,1908.500
1765544824.9472718,0,0,10792,1349.000
1765544824.9512696,0,0,7661,957.625
1765544824.9552722,0,0,14136,1767.000
1765544824.9592674,0,0,17734,2216.750
1765544824.9632897,1,1,15484,1935.500
1765544824.9672847,0,0,11010,1376.250
1765544824.97129,0,0,7816,977.000
1765544824.9752874,0,0,14157,1769.625
1765544824.9792852,0,0,17883,2235.375
1765544824.9832842,1,1,15988,1998.500
1765544824.9873216,0,0,11492,1436.500
1765544824.991291,0,0,7941,992.625
1765544824.995288,0,0,13696,1712.000
1765544824.9992843,0,0,17599,2199.875
1765544825.0032737,1,1,15427,1928.375
1765544825.0072668,0,0,10975,1371.875
1765544825.011283,0,0,13456,1682.000
1765544825.0152862,0,0,17723,2215.375
1765544825.0192838,0,0,16077,2009.625
1765544825.023286,1,1,11617,1452.125
1765544825.0272832,0,0,7882,985.250
1765544825.0312858,0,0,13235,1654.375
1765544825.0352845,0,0,17668,2208.500
1765544825.0392828,0,0,16112,2014.000
1765544825.0432868,1,1,11664,1458.000
1765544825.0472796,0,0,7858,982.250
1765544825.0512798,0,0,12905,1613.125
1765544825.0552793,0,0,17612,2201.500
1765544825.059283,0,0,16272,2034.000
1765544825.0632837,1,1,11853,1481.625
1765544825.0672798,0,0,7862,982.750
1765544825.071366,0,0,12473,1559.125
1765544825.0752804,0,0,17514,2189.250
1765544825.0792687,0,0,16408,2051.000
1765544825.0832858,1,1,12030,1503.750
1765544825.087323,0,0,7999,999.875
1765544825.0912864,0,0,12331,1541.375
1765544825.0952656,0,0,17497,2187.125
1765544825.0992718,0,0,16553,2069.125
1765544825.1032896,1,1,12202,1525.250
1765544825.1072881,0,0,8148,1018.500
1765544825.1112905,0,0,12196,1524.500
1765544825.1152897,0,0,17486,2185.750
1765544825.119285,0,0,16768,2096.000
1765544825.1232908,1,1,12464,1558.000
1765544825.1272862,0,0,8275,1034.375
1765544825.1313002,0,0,11800,1475.000
1765544825.1352692,0,0,17370,2171.250
1765544825.1392667,0,0,16852,2106.500
1765544825.1432853,1,1,12600,1575.000
1765544825.1472852,0,0,8337,1042.125
1765544825.1512856,0,0,11258,1407.250
1765544825.155275,0,0,17159,2144.875
1765544825.1592836,0,0,16704,2088.000
1765544825.1632884,1,1,12465,1558.125
1765544825.167285,0,0,8269,1033.625
1765544825.171301,0,0,10908,1363.500
1765544825.1752844,0,0,17078,2134.750
1765544825.1792812,0,0,16944,2118.000
1765544825.183279,1,1,12800,1600.000
1765544825.1873193,0,0,8510,1063.750
1765544825.1912851,0,0,10488,1311.000
1765544825.1952882,0,0,16836,2104.500
1765544825.1992805,0,0,16569,2071.125
1765544825.2032824,1,1,12378,1547.250
1765544825.2072785,0,0,8324,1040.500
1765544825.2112858,0,0,10433,1304.125
1765544825.2152836,0,0,16946,2118.250
1765544825.2192862,0,0,17321,2165.125
1765544825.22328,1,1,13374,1671.750
1765544825.227278,0,0,8984,1123.000
1765544825.2312808,0,0,10300,1287.500
1765544825.235286,0,0,16855,2106.875
1765544825.239281,0,0,17346,2168.250
1765544825.2432854,1,1,13445,1680.625
1765544825.2472796,0,0,9067,1133.375
1765544825.2512848,0,0,9878,1234.750
1765544825.2552843,0,0,16635,2079.375
1765544825.25928,0,0,17199,2149.875
1765544825.263286,1,1,13291,1661.375
1765544825.267284,0,0,9016,1127.000
1765544825.271365,0,0,9675,1209.375
1765544825.2752976,0,0,16574,2071.750
1765544825.2792847,0,0,17513,2189.125
1765544825.2832825,1,1,13816,1727.000
1765544825.2873192,0,0,9419,1177.375
1765544825.2912853,0,0,9615,1201.875
1765544825.295265,0,0,16515,2064.375
1765544825.2992637,0,0,17669,2208.625
1765544825.3032863,1,1,14123,1765.375
1765544825.3072832,0,0,9661,1207.625
1765544825.311283,0,0,9003,1125.375
1765544825.315284,0,0,16123,2015.375
1765544825.3192823,0,0,17432,2179.000
1765544825.3232741,1,1,13844,1730.500
1765544825.327265,0,0,9480,1185.000
1765544825.3312774,0,0,8945,1118.125
1765544825.3352985,0,0,16136,2017.000
1765544825.3392813,0,0,17771,2221.375
1765544825.3432744,1,1,14494,1811.750
1765544825.3472652,0,0,10006,1250.750
1765544825.3512733,0,0,8754,1094.250
1765544825.3552783,0,0,15893,1986.625
1765544825.3592768,0,0,17638,2204.750
1765544825.363268,1,1,14332,1791.500
1765544825.3672621,0,0,9902,1237.750
1765544825.3712661,0,0,8593,1074.125
1765544825.3752809,0,0,15789,1973.625
1765544825.379275,0,0,17790,2223.750
1765544825.3832793,1,1,14717,1839.625
1765544825.3872962,0,0,10233,1279.125
1765544825.391283,0,0,8538,1067.250
1765544825.3952813,0,0,15629,1953.625
1765544825.3992755,0,0,17765,2220.625
1765544825.403283,1,1,14749,1843.625
1765544825.407276,0,0,10270,1283.750
1765544825.41128,0,0,8222,1027.750
1765544825.4152784,0,0,15320,1915.000
1765544825.4192803,0,0,17699,2212.375
1765544825.4232798,1,1,14768,1846.000
1765544825.4272735,0,0,10303,1287.875
1765544825.4312809,0,0,8068,1008.500
1765544825.4352841,0,0,15144,1893.000
1765544825.4392774,0,0,17802,2225.250
1765544825.4432786,1,1,15142,1892.750
1765544825.447274,0,0,10634,1329.250
1765544825.4512815,0,0,7987,998.375
1765544825.4552624,0,0,14888,1861.000
1765544825.4592605,0,0,17734,2216.750
1765544825.4632802,1,1,15121,1890.125
1765544825.467277,0,0,10630,1328.750
1765544825.4767623,0,0,17770,2221.250
1765544825.4793022,0,0,17770,2221.250
1765544825.48328,1,1,15346,1918.250
1765544825.4872966,0,0,10839,1354.875
1765544825.4912686,0,0,7778,972.250
1765544825.4952772,0,0,14369,1796.125
1765544825.49928,0,0,17703,2212.875
1765544825.503269,1,1,15399,1924.875
1765544825.5072582,0,0,10904,1363.000
1765544825.5112631,0,0,7744,968.000
1765544825.5152602,0,0,14131,1766.375
1765544825.5192578,0,0,17655,2206.875
1765544825.523292,1,1,15430,1928.750
1765544825.527281,0,0,10944,1368.000
1765544825.531282,0,0,7710,963.750
1765544825.5352817,0,0,13964,1745.500
1765544825.5392864,0,0,17715,2214.375
1765544825.5432742,1,1,15781,1972.625
1765544825.5472622,0,0,11291,1411.375
1765544825.5512693,0,0,7702,962.750
1765544825.5552783,0,0,17655,2206.875
1765544825.559276,0,0,15913,1989.125
1765544825.5632687,1,1,11440,1430.000
1765544825.567262,0,0,7731,966.375
1765544825.5712688,0,0,13356,1669.500
1765544825.575261,0,0,17623,2202.875
1765544825.579257,0,0,16046,2005.750
1765544825.583274,1,1,11589,1448.625
1765544825.5872931,0,0,7704,963.000
1765544825.5912805,0,0,12666,1583.250
1765544825.5952775,0,0,17264,2158.000
1765544825.599273,0,0,15412,1926.500
1765544825.6032777,1,1,10997,1374.625
1765544825.6072724,0,0,7422,927.750
1765544825.611278,0,0,12770,1596.250
1765544825.615275,0,0,17576,2197.000
1765544825.6192758,0,0,16549,2068.625
1765544825.6232748,1,1,12180,1522.500
1765544825.627272,0,0,8030,1003.750
1765544825.6312783,0,0,12456,1557.000
1765544825.635279,0,0,17430,2178.750
1765544825.6392715,0,0,16289,2036.125
1765544825.643275,1,1,11904,1488.000
1765544825.6472704,0,0,7853,981.625
1765544825.6512775,0,0,12068,1508.500
1765544825.655276,0,0,17358,2169.750
1765544825.659272,0,0,16495,2061.875
1765544825.6632738,1,1,12163,1520.375
1765544825.6672742,0,0,8051,1006.375
1765544825.6712778,0,0,11958,1494.750
1765544825.6753576,0,0,17368,2171.000
1765544825.6792905,0,0,16790,2098.750
1765544825.6832745,1,1,12528,1566.000
1765544825.6873026,0,0,8267,1033.375
1765544825.6913245,0,0,11731,1466.375
1765544825.6952999,0,0,17315,2164.375
1765544825.6992798,0,0,16980,2122.500
1765544825.703282,1,1,12796,1599.500
1765544825.7072742,0,0,8436,1054.500
1765544825.711276,0,0,11285,1410.625
1765544825.715276,0,0,17141,2142.625
1765544825.7192621,0,0,16853,2106.625
1765544825.7232857,1,1,12670,1583.750
1765544825.7272806,0,0,8406,1050.750
1765544825.7312908,0,0,11059,1382.375
1765544825.7352595,0,0,17092,2136.500
1765544825.739261,0,0,17092,2136.500
1765544825.743277,1,1,13010,1626.250
1765544825.7472746,0,0,8670,1083.750
1765544825.7512755,0,0,10771,1346.375
1765544825.7552614,0,0,16949,2118.625
1765544825.7592592,0,0,16931,2116.375
1765544825.763445,1,1,12828,1603.500
1765544825.7675228,0,0,8622,1077.750
1765544825.7713172,0,0,11123,1390.375
1765544825.775276,0,0,17161,2145.125
1765544825.7792718,0,0,17818,2227.250
1765544825.7832813,1,1,14179,1772.375
1765544825.7873142,0,0,9494,1186.750
1765544825.7912774,0,0,9963,1245.375
1765544825.7952714,0,0,16577,2072.125
1765544825.799269,0,0,17041,2130.125
1765544825.803279,1,1,13098,1637.250
1765544825.8072736,0,0,8796,1099.500
1765544825.8112764,0,0,9617,1202.125
1765544825.8152716,0,0,16496,2062.000
1765544825.819274,0,0,17310,2163.750
1765544825.8232648,1,1,13544,1693.000
1765544825.8272572,0,0,9139,1142.375
1765544825.8312633,0,0,9342,1167.750
1765544825.835289,0,0,16318,2039.750
1765544825.839273,0,0,17231,2153.875
1765544825.843273,1,1,13473,1684.125
1765544825.8472743,0,0,9144,1143.000
1765544825.851291,0,0,9332,1166.500
1765544825.8552766,0,0,16336,2042.000
1765544825.8592703,0,0,17552,2194.000
1765544825.8632743,1,1,14022,1752.750
1765544825.8672833,0,0,9568,1196.000
1765544825.8712783,0,0,9128,1141.000
1765544825.8753605,0,0,16167,2020.875
1765544825.8792865,0,0,17532,2191.500
1765544825.8832724,1,1,14054,1756.750
1765544825.8872955,0,0,9628,1203.500
1765544825.8912685,0,0,8933,1116.625
1765544825.8952754,0,0,16040,2005.000
1765544825.899276,0,0,17663,2207.875
1765544825.9032633,1,1,14377,1797.125
1765544825.9072528,0,0,9895,1236.875
1765544825.9112656,0,0,8750,1093.750
1765544825.9152765,0,0,15881,1985.125
1765544825.9192753,0,0,17748,2218.500
1765544825.9232743,1,1,14646,1830.750
1765544825.92727,0,0,10132,1266.500
1765544825.931272,0,0,8509,1063.625
1765544825.9352717,0,0,15646,1955.750
1765544825.939273,0,0,17690,2211.250
1765544825.94328,1,1,14641,1830.125
1765544825.947277,0,0,10153,1269.125
1765544825.9512725,0,0,8333,1041.625
1765544825.9552548,0,0,15448,1931.000
1765544825.9592772,0,0,17654,2206.750
1765544825.9632628,1,1,14665,1833.125
1765544825.9672554,0,0,10190,1273.750
1765544825.9712548,0,0,8220,1027.500
1765544825.9752545,0,0,15320,1915.000
1765544825.9792583,0,0,17759,2219.875
1765544825.9832778,1,1,15009,1876.125
1765544825.9873095,0,0,10497,1312.125
1765544825.9912755,0,0,8117,1014.625
1765544825.9952762,0,0,15076,1884.500
1765544825.9992702,0,0,17706,2213.250
1765544826.0032704,1,1,15027,1878.375
1765544826.0072706,0,0,10525,1315.625
1765544826.0112793,0,0,7670,958.750
1765544826.0152678,0,0,14518,1814.750
1765544826.0192678,0,0,17514,2189.250
1765544826.0232627,1,1,14861,1857.625
1765544826.0272553,0,0,10403,1300.375
1765544826.0312576,0,0,7750,968.750
1765544826.0352685,0,0,14632,1829.000
1765544826.0392683,0,0,17776,2222.000
1765544826.043266,1,1,15553,1944.125
1765544826.0472698,0,0,11028,1378.500
1765544826.0512755,0,0,7844,980.500
1765544826.0552711,0,0,14356,1794.500
1765544826.059266,0,0,17721,2215.125
1765544826.0632682,1,1,15604,1950.500
1765544826.0672688,0,0,11093,1386.625
1765544826.0712702,0,0,7726,965.750
1765544826.0753303,0,0,14016,1752.000
1765544826.0792654,0,0,17627,2203.375
1765544826.0832558,1,1,15569,1946.125
1765544826.0872672,0,0,11075,1384.375
1765544826.0912595,0,0,7541,942.625
1765544826.095269,0,0,13516,1689.500
1765544826.09927,0,0,17484,2185.500
1765544826.1032588,1,1,15504,1938.000
1765544826.1072488,0,0,7690,961.250
1765544826.1112616,0,0,13741,1717.625
1765544826.1152754,0,0,17696,2212.000
1765544826.1192713,0,0,16111,2013.875
1765544826.1232722,1,1,11640,1455.000
1765544826.1272688,0,0,7859,982.375
1765544826.131294,0,0,13385,1673.125
1765544826.135281,0,0,17621,2202.625
1765544826.1392732,0,0,16210,2026.250
1765544826.1432643,1,1,11767,1470.875
1765544826.1472538,0,0,7933,991.625
1765544826.1512625,0,0,13232,1654.000
1765544826.155271,0,0,17619,2202.375
1765544826.159272,0,0,16446,2055.750
1765544826.163261,1,1,12039,1504.875
1765544826.1672533,0,0,7977,997.125
1765544826.1712635,0,0,12855,1606.875
1765544826.1752682,0,0,17515,2189.375
1765544826.17927,0,0,16467,2058.375
1765544826.1832733,1,1,12092,1511.500
1765544826.1873045,0,0,7968,996.000
1765544826.1912668,0,0,12416,1552.000
1765544826.1952755,0,0,17377,2172.125
1765544826.1992698,0,0,16399,2049.875
1765544826.2032685,1,1,12038,1504.750
1765544826.2072692,0,0,7968,996.000
1765544826.2112706,0,0,12281,1535.125
1765544826.2152662,0,0,17395,2174.375
1765544826.219264,0,0,16768,2096.000
1765544826.2232702,1,1,12495,1561.875
1765544826.2272692,0,0,8229,1028.625
1765544826.2312672,0,0,11916,1489.500
1765544826.235264,0,0,17260,2157.500
1765544826.2392633,0,0,16651,2081.375
1765544826.2432685,1,1,12379,1547.375
1765544826.2472653,0,0,8061,1007.625
1765544826.2512677,0,0,11108,1388.500
1765544826.2552643,0,0,16989,2123.625
1765544826.2592642,0,0,16549,2068.625
1765544826.2632675,1,1,12320,1540.000
1765544826.2672665,0,0,8107,1013.375
1765544826.2712667,0,0,11026,1378.250
1765544826.2753434,0,0,17008,2126.000
1765544826.2792814,0,0,16865,2108.125
1765544826.283254,1,1,12731,1591.375
1765544826.287271,0,0,8400,1050.000
1765544826.2912614,0,0,10781,1347.625
1765544826.2952688,0,0,16924,2115.500
1765544826.2992656,0,0,16961,2120.125
1765544826.303258,1,1,12887,1610.875
1765544826.3072488,0,0,8503,1062.875
1765544826.3112605,0,0,10255,1281.875
1765544826.3152738,0,0,16700,2087.500
1765544826.3192704,0,0,16806,2100.750
1765544826.323257,1,1,12733,1591.625
1765544826.3272507,0,0,8489,1061.125
1765544826.3312721,0,0,10213,1276.625
1765544826.3352637,0,0,16733,2091.625
1765544826.339254,0,0,17215,2151.875
1765544826.3432853,1,1,13325,1665.625
1765544826.3472726,0,0,8919,1114.875
1765544826.3512697,0,0,10119,1264.875
1765544826.3552682,0,0,16690,2086.250
1765544826.3592694,0,0,17415,2176.875
1765544826.363257,1,1,13667,1708.375
1765544826.3672493,0,0,9206,1150.750
1765544826.3712606,0,0,9909,1238.625
1765544826.3752658,0,0,16567,2070.875
1765544826.3792672,0,0,17421,2177.625
1765544826.3832686,1,1,13727,1715.875
1765544826.387302,0,0,9285,1160.625
1765544826.3912666,0,0,9577,1197.125
1765544826.3952653,0,0,16403,2050.375
1765544826.3992646,0,0,17472,2184.000
1765544826.4032626,1,1,13885,1735.625
1765544826.4072669,0,0,9417,1177.125
1765544826.4112687,0,0,9140,1142.500
1765544826.4152625,0,0,16155,2019.375
1765544826.419265,0,0,17408,2176.000
1765544826.4232683,1,1,13866,1733.250
1765544826.4272668,0,0,9439,1179.875
1765544826.4312656,0,0,8754,1094.250
1765544826.4352632,0,0,15918,1989.750
1765544826.4392626,0,0,17393,2174.125
1765544826.4432654,1,1,13933,1741.625
1765544826.4472654,0,0,9519,1189.875
1765544826.4512687,0,0,8657,1082.125
1765544826.4552643,0,0,15862,1982.750
1765544826.4592633,0,0,17625,2203.125
1765544826.4632697,1,1,14429,1803.625
1765544826.4672647,0,0,9937,1242.125
1765544826.4712672,0,0,8574,1071.750
1765544826.4807036,0,0,14358,1794.750
1765544826.4832988,1,1,14358,1794.750
1765544826.487287,0,0,9913,1239.125
1765544826.4912736,0,0,8924,1115.500
1765544826.4952495,0,0,15922,1990.250
1765544826.4992447,0,0,17997,2249.625
1765544826.5032723,1,1,15364,1920.500
1765544826.5072682,0,0,10768,1346.000
1765544826.5112698,0,0,8458,1057.250
1765544826.515253,0,0,15368,1921.000
1765544826.5192463,0,0,17634,2204.250
1765544826.523268,1,1,14738,1842.250
1765544826.5272634,0,0,10239,1279.875
1765544826.5312707,0,0,7884,985.500
1765544826.5352542,0,0,14924,1865.500
1765544826.5392563,0,0,17459,2182.375
1765544826.5432496,1,1,14560,1820.000
1765544826.5472486,0,0,10110,1263.750
1765544826.551258,0,0,7606,950.750
1765544826.5552666,0,0,14651,1831.375
1765544826.5592666,0,0,17489,2186.125
1765544826.563256,1,1,14787,1848.375
1765544826.5672445,0,0,10324,1290.500
1765544826.571249,0,0,7646,955.750
1765544826.5752487,0,0,14565,1820.625
1765544826.5792515,0,0,17612,2201.500
1765544826.5832665,1,1,15175,1896.875
1765544826.5872989,0,0,10672,1334.000
1765544826.591267,0,0,7729,966.125
1765544826.5952702,0,0,14397,1799.625
1765544826.5992637,0,0,17586,2198.250
1765544826.6032667,1,1,15212,1901.500
1765544826.6072607,0,0,10714,1339.250
1765544826.6112654,0,0,7562,945.250
1765544826.6152642,0,0,14034,1754.250
1765544826.6192644,0,0,17524,2190.500
1765544826.6232667,1,1,15290,1911.250
1765544826.6272657,0,0,10804,1350.500
1765544826.6312637,0,0,7489,936.125
1765544826.6352608,0,0,13823,1727.875
1765544826.6392624,0,0,17582,2197.750
1765544826.6432672,1,1,15664,1958.000
1765544826.6472614,0,0,11177,1397.125
1765544826.6512594,0,0,7624,953.000
1765544826.655256,0,0,17603,2200.375
1765544826.6592605,0,0,15917,1989.625
1765544826.663266,1,1,11440,1430.000
1765544826.6672597,0,0,7667,958.375
1765544826.6712635,0,0,13266,1658.250
1765544826.6752653,0,0,17455,2181.875
1765544826.6793337,0,0,15721,1965.125
1765544826.6832652,1,1,11258,1407.250
1765544826.6872635,0,0,7694,961.750
1765544826.6912525,0,0,13390,1673.750
1765544826.6952713,0,0,17644,2205.500
1765544826.6992612,0,0,16472,2059.000
1765544826.7032511,1,1,12066,1508.250
1765544826.707247,0,0,7998,999.750
1765544826.7112534,0,0,12986,1623.250
1765544826.715264,0,0,17495,2186.875
1765544826.7192612,0,0,16277,2034.625
1765544826.7232664,1,1,11869,1483.625
1765544826.727262,0,0,7746,968.250
1765544826.7312646,0,0,12296,1537.000
1765544826.7352636,0,0,17277,2159.625
1765544826.7392654,0,0,16139,2017.375
1765544826.7432609,1,1,11757,1469.625
1765544826.747246,0,0,7825,978.125
1765544826.7512546,0,0,12509,1563.625
1765544826.7552683,0,0,17443,2180.375
1765544826.759263,0,0,16777,2097.125
1765544826.7634196,1,1,12499,1562.375
1765544826.7674985,0,0,8399,1049.875
1765544826.7713134,0,0,12964,1620.500
1765544826.7752697,0,0,17622,2202.750
1765544826.779263,0,0,17460,2182.500
1765544826.783264,1,1,13429,1678.625
1765544826.7873037,0,0,8705,1088.125
1765544826.791264,0,0,11549,1443.625
1765544826.7952604,0,0,17061,2132.625
1765544826.7992601,0,0,16411,2051.375
1765544826.80326,1,1,12128,1516.000
1765544826.8072598,0,0,7952,994.000
1765544826.8112645,0,0,11197,1399.625
1765544826.8152468,0,0,17020,2127.500
1765544826.8192601,0,0,16782,2097.750
1765544826.8232524,1,1,12622,1577.750
1765544826.8272438,0,0,8275,1034.375
1765544826.8312538,0,0,10914,1364.250
1765544826.8352642,0,0,16926,2115.750
1765544826.8392603,0,0,16862,2107.750
1765544826.8432653,1,1,12758,1594.750
1765544826.847256,0,0,8405,1050.625
1765544826.8512602,0,0,10603,1325.375
1765544826.8552585,0,0,16813,2101.625
1765544826.8592613,0,0,16894,2111.750
1765544826.863264,1,1,12836,1604.500
1765544826.8672566,0,0,8477,1059.625
1765544826.8712606,0,0,10255,1281.875
1765544826.8752642,0,0,16714,2089.250
1765544826.8793366,0,0,17170,2146.250
1765544826.8832743,1,1,13279,1659.875
1765544826.8872855,0,0,8845,1105.625
1765544826.8912508,0,0,10210,1276.250
1765544826.89526,0,0,16683,2085.375
1765544826.8992577,0,0,17304,2163.000
1765544826.9032547,1,1,13505,1688.125
1765544826.9072454,0,0,9041,1130.125
1765544826.9112628,0,0,10085,1260.625
1765544826.915265,0,0,16630,2078.750
1765544826.9192624,0,0,17482,2185.250
1765544826.9232872,1,1,13840,1730.000
1765544826.927279,0,0,9308,1163.500
1765544826.9312725,0,0,9757,1219.625
1765544826.9352438,0,0,16443,2055.375
1765544826.9392438,0,0,17335,2166.875
1765544826.9432616,1,1,13652,1706.500
1765544826.9472609,0,0,9198,1149.750
1765544826.9512627,0,0,9252,1156.500
1765544826.9552495,0,0,16213,2026.625
1765544826.9592438,0,0,17409,2176.125
1765544826.9632611,1,1,13879,1734.875
1765544826.9672616,0,0,9405,1175.625
1765544826.9712658,0,0,8963,1120.375
1765544826.9752624,0,0,16023,2002.875
1765544826.979258,0,0,17384,2173.000
1765544826.9832578,1,1,13910,1738.750
1765544826.9872751,0,0,9470,1183.750
1765544826.991246,0,0,8745,1093.125
1765544826.995262,0,0,15884,1985.500
1765544826.9992585,0,0,17482,2185.250
1765544827.0032628,1,1,14160,1770.000
1765544827.0072563,0,0,9693,1211.625
1765544827.0112588,0,0,8536,1067.000
1765544827.015259,0,0,15686,1960.750
1765544827.0192602,0,0,17428,2178.500
1765544827.0232575,1,1,14139,1767.375
1765544827.0272546,0,0,9697,1212.125
1765544827.0312588,0,0,8229,1028.625
1765544827.0352597,0,0,15463,1932.875
1765544827.0392578,0,0,17458,2182.250
1765544827.0432484,1,1,14308,1788.500
1765544827.047237,0,0,9854,1231.750
1765544827.051247,0,0,8090,1011.250
1765544827.0552597,0,0,15315,1914.375
1765544827.0592697,0,0,17560,2195.000
1765544827.063261,1,1,14615,1826.875
1765544827.0672548,0,0,10129,1266.125
1765544827.0712576,0,0,8193,1024.125
1765544827.0752442,0,0,15270,1908.750
1765544827.079315,0,0,17633,2204.125
1765544827.083262,1,1,14822,1852.750
1765544827.087279,0,0,10315,1289.375
1765544827.0912488,0,0,8100,1012.500
1765544827.0952578,0,0,15106,1888.250
1765544827.0992556,0,0,17683,2210.375
1765544827.1032481,1,1,15071,1883.875
1765544827.1072426,0,0,10543,1317.875
1765544827.11125,0,0,7878,984.750
1765544827.115259,0,0,14800,1850.000
1765544827.1192558,0,0,17670,2208.750
1765544827.1232626,1,1,15257,1907.125
1765544827.1272566,0,0,10730,1341.250
1765544827.1312633,0,0,7785,973.125
1765544827.1352599,0,0,14524,1815.500
1765544827.1392572,0,0,17595,2199.375
1765544827.1432652,1,1,15232,1904.000
1765544827.147282,0,0,10721,1340.125
1765544827.1512628,0,0,7861,982.625
1765544827.155244,0,0,14503,1812.875
1765544827.1592586,0,0,17665,2208.125
1765544827.163255,1,1,15480,1935.000
1765544827.1672542,0,0,10956,1369.500
1765544827.1712625,0,0,7674,959.250
1765544827.175244,0,0,14028,1753.500
1765544827.1792374,0,0,17556,2194.500
1765544827.1832602,1,1,15514,1939.250
1765544827.1873004,0,0,11013,1376.625
1765544827.1912632,0,0,7557,944.625
1765544827.1952648,0,0,13751,1718.875
1765544827.199255,0,0,17529,2191.125
1765544827.2032611,1,1,11178,1397.250
1765544827.2072556,0,0,7581,947.625
1765544827.2112598,0,0,13493,1686.625
1765544827.2152576,0,0,17497,2187.125
1765544827.2192583,0,0,15798,1974.750
1765544827.223257,1,1,11326,1415.750
1765544827.2272525,0,0,7474,934.250
1765544827.2312598,0,0,12979,1622.375
1765544827.2352636,0,0,17362,2170.250
1765544827.239257,0,0,15784,1973.000
1765544827.2432585,1,1,11340,1417.500
1765544827.2472546,0,0,7442,930.250
1765544827.2512586,0,0,12607,1575.875
1765544827.2552571,0,0,17266,2158.250
1765544827.2592564,0,0,15786,1973.250
1765544827.263257,1,1,11359,1419.875
1765544827.2672524,0,0,7487,935.875
1765544827.2712562,0,0,12459,1557.375
1765544827.2752564,0,0,17278,2159.750
1765544827.2793248,0,0,15995,1999.375
1765544827.2832644,1,1,11588,1448.500
1765544827.2872546,0,0,7608,951.000
1765544827.2912445,0,0,12262,1532.750
1765544827.2952538,0,0,17292,2161.500
1765544827.299256,0,0,16338,2042.250
1765544827.3032458,1,1,11984,1498.000
1765544827.3072367,0,0,7867,983.375
1765544827.311247,0,0,12104,1513.000
1765544827.3152573,0,0,17258,2157.250
1765544827.3192568,0,0,16426,2053.250
1765544827.323246,1,1,12101,1512.625
1765544827.3272376,0,0,7943,992.875
1765544827.3312454,0,0,11829,1478.625
1765544827.3352644,0,0,17205,2150.625
1765544827.339256,0,0,16633,2079.125
1765544827.3432477,1,1,12373,1546.625
1765544827.3472378,0,0,8089,1011.125
1765544827.3512485,0,0,11535,1441.875
1765544827.3552563,0,0,17137,2142.125
1765544827.3592541,0,0,16834,2104.250
1765544827.3632483,1,1,12660,1582.500
1765544827.3672388,0,0,8281,1035.125
1765544827.3712456,0,0,11109,1388.625
1765544827.3752575,0,0,16979,2122.375
1765544827.3792531,0,0,16755,2094.375
1765544827.3832552,1,1,12596,1574.500
1765544827.387292,0,0,8289,1036.125
1765544827.3912597,0,0,10921,1365.125
1765544827.395259,0,0,16935,2116.875
1765544827.3992517,0,0,16937,2117.125
1765544827.4032564,1,1,12863,1607.875
1765544827.4072535,0,0,8464,1058.000
1765544827.4112566,0,0,10382,1297.750
1765544827.4152532,0,0,16723,2090.375
1765544827.4192498,0,0,16867,2108.375
1765544827.4232526,1,1,12819,1602.375
1765544827.4272487,0,0,8497,1062.125
1765544827.4312534,0,0,10295,1286.875
1765544827.435255,0,0,16721,2090.125
1765544827.4392529,0,0,17166,2145.750
1765544827.4432511,1,1,13269,1658.625
1765544827.447249,0,0,8842,1105.250
1765544827.451257,0,0,10082,1260.250
1765544827.4552517,0,0,16627,2078.375
1765544827.459248,0,0,17309,2163.625
1765544827.463251,1,1,13538,1692.250
1765544827.467249,0,0,9079,1134.875
1765544827.4712522,0,0,9941,1242.625
1765544827.4752522,0,0,16553,2069.125
1765544827.4847689,1,1,13748,1718.500
1765544827.4873035,0,0,9317,1164.625
1765544827.4912739,0,0,10565,1320.625
1765544827.495238,0,0,16813,2101.625
1765544827.4992368,0,0,17988,2248.500
1765544827.5032544,1,1,14839,1854.875
1765544827.507251,0,0,10128,1266.000
1765544827.5112522,0,0,9495,1186.875
1765544827.5152407,0,0,16212,2026.500
1765544827.519236,0,0,17327,2165.875
1765544827.5232568,1,1,13740,1717.500
1765544827.527255,0,0,9301,1162.625
1765544827.5312555,0,0,8832,1104.000
1765544827.535251,0,0,15922,1990.250
1765544827.539265,0,0,17283,2160.375
1765544827.5432606,1,1,13778,1722.250
1765544827.5472555,0,0,9386,1173.250
1765544827.5512495,0,0,8858,1107.250
1765544827.5552373,0,0,15926,1990.750
1765544827.5592363,0,0,17540,2192.500
1765544827.5632362,1,1,14286,1785.750
1765544827.5672374,0,0,9793,1224.125
1765544827.571236,0,0,8676,1084.500
1765544827.5752337,0,0,15745,1968.125
1765544827.5792317,0,0,17557,2194.625
1765544827.5832477,1,1,14418,1802.250
1765544827.5872903,0,0,9922,1240.250
1765544827.5912564,0,0,8455,1056.875
1765544827.5952508,0,0,15568,1946.000
1765544827.5992472,0,0,17657,2207.125
1765544827.6032512,1,1,14762,1845.250
1765544827.6072514,0,0,10227,1278.375
1765544827.6112528,0,0,8211,1026.375
1765544827.6152453,0,0,15266,1908.250
1765544827.6192472,0,0,17495,2186.875
1765544827.6232483,1,1,14533,1816.625
1765544827.627245,0,0,10049,1256.125
1765544827.6312518,0,0,8008,1001.000
1765544827.6352534,0,0,15115,1889.375
1765544827.639245,0,0,17580,2197.500
1765544827.6432486,1,1,14834,1854.250
1765544827.6472464,0,0,10325,1290.625
1765544827.6512542,0,0,8047,1005.875
1765544827.655252,0,0,15031,1878.875
1765544827.6592467,0,0,17673,2209.125
1765544827.6632483,1,1,15157,1894.625
1765544827.6672475,0,0,10617,1327.125
1765544827.67125,0,0,7895,986.875
1765544827.6752515,0,0,14726,1840.750
1765544827.6792505,0,0,17606,2200.750
1765544827.6833322,1,1,15184,1898.000
1765544827.68728,0,0,10660,1332.500
1765544827.6912558,0,0,8060,1007.500
1765544827.695257,0,0,14830,1853.750
1765544827.6992533,0,0,17770,2221.250
1765544827.7032528,1,1,15669,1958.625
1765544827.7072482,0,0,11122,1390.250
1765544827.7112508,0,0,7884,985.500
1765544827.7152405,0,0,14322,1790.250
1765544827.7192352,0,0,17606,2200.750
1765544827.7232533,1,1,15540,1942.500
1765544827.7272496,0,0,11020,1377.500
1765544827.731252,0,0,7657,957.125
1765544827.7352507,0,0,13950,1743.750
1765544827.739255,0,0,17511,2188.875
1765544827.743259,1,1,15527,1940.875
1765544827.7472517,0,0,11025,1378.125
1765544827.7512517,0,0,7654,956.750
1765544827.7552488,0,0,17547,2193.375
1765544827.7592514,0,0,15795,1974.375
1765544827.763412,1,1,11306,1413.250
1765544827.767493,0,0,8006,1000.750
1765544827.771301,0,0,14165,1770.625
1765544827.775251,0,0,17788,2223.500
1765544827.7792513,0,0,16667,2083.375
1765544827.7832544,1,1,12270,1533.750
1765544827.7872908,0,0,8104,1013.000
1765544827.7912488,0,0,13231,1653.875
1765544827.7952468,0,0,17390,2173.750
1765544827.7992458,0,0,15829,1978.625
1765544827.8032513,1,1,11368,1421.000
1765544827.8072493,0,0,7484,935.500
1765544827.8112547,0,0,12606,1575.750
1765544827.815247,0,0,17222,2152.750
1765544827.8192472,0,0,15800,1975.000
1765544827.8232403,1,1,11373,1421.625
1765544827.8272388,0,0,7481,935.125
1765544827.8312433,0,0,12431,1553.875
1765544827.835251,0,0,17257,2157.125
1765544827.8392477,0,0,16180,2022.500
1765544827.843249,1,1,11802,1475.250
1765544827.8472486,0,0,7721,965.125
1765544827.8512542,0,0,12227,1528.375
1765544827.8552501,0,0,17218,2152.250
1765544827.859248,0,0,16283,2035.375
1765544827.8632524,1,1,11933,1491.625
1765544827.8672512,0,0,7792,974.000
1765544827.8712533,0,0,11891,1486.375
1765544827.875253,0,0,17134,2141.750
1765544827.879247,0,0,16364,2045.500
1765544827.8833325,1,1,12052,1506.500
1765544827.887298,0,0,7952,994.000
1765544827.8912551,0,0,11965,1495.625
1765544827.8952336,0,0,17227,2153.375
1765544827.8992326,0,0,16896,2112.000
1765544827.903252,1,1,12729,1591.125
1765544827.9072454,0,0,8282,1035.250
1765544827.9112518,0,0,11350,1418.750
1765544827.9152367,0,0,16992,2124.000
1765544827.9192507,0,0,16612,2076.500
1765544827.923247,1,1,12403,1550.375
1765544827.9272444,0,0,8141,1017.625
1765544827.9312487,0,0,11082,1385.250
1765544827.935247,0,0,16932,2116.500
1765544827.9392455,0,0,16812,2101.500
1765544827.9432502,1,1,12694,1586.750
1765544827.9472487,0,0,8364,1045.500
1765544827.951246,0,0,10903,1362.875
1765544827.955236,0,0,16884,2110.500
1765544827.9592307,0,0,17002,2125.250
1765544827.963247,1,1,12985,1623.125
1765544827.9672477,0,0,8558,1069.750
1765544827.9712512,0,0,10444,1305.500
1765544827.9752283,0,0,16695,2086.875
1765544827.9792287,0,0,16889,2111.125
1765544827.9832506,1,1,12875,1609.375
1765544827.987285,0,0,8523,1065.375
1765544827.9912496,0,0,10023,1252.875
1765544827.9952502,0,0,16543,2067.875
1765544827.9992483,0,0,16977,2122.125
1765544828.0032432,1,1,13052,1631.500
1765544828.007232,0,0,8683,1085.375
1765544828.011238,0,0,9856,1232.000
1765544828.0152462,0,0,16480,2060.000
1765544828.0192482,0,0,17133,2141.625
1765544828.0232499,1,1,13319,1664.875
1765544828.0272472,0,0,8926,1115.750
1765544828.03125,0,0,9676,1209.500
1765544828.035247,0,0,16388,2048.500
1765544828.039243,0,0,17254,2156.750
1765544828.0432503,1,1,13554,1694.250
1765544828.0472445,0,0,9123,1140.375
1765544828.051248,0,0,9293,1161.625
1765544828.0552425,0,0,16182,2022.750
1765544828.059244,0,0,17220,2152.500
1765544828.0632348,1,1,13571,1696.375
1765544828.0672286,0,0,9159,1144.875
1765544828.0712273,0,0,9094,1136.750
1765544828.07523,0,0,16093,2011.625
1765544828.079226,0,0,17420,2177.500
1765544828.0833242,1,1,13977,1747.125
1765544828.0872765,0,0,9500,1187.500
1765544828.0912526,0,0,8979,1122.375
1765544828.095228,0,0,15973,1996.625
1765544828.0992482,0,0,17425,2178.125
1765544828.1032434,1,1,14042,1755.250
1765544828.1072404,0,0,9573,1196.625
1765544828.111243,0,0,8717,1089.625
1765544828.115232,0,0,15809,1976.125
1765544828.1192288,0,0,17508,2188.500
1765544828.1232493,1,1,14294,1786.750
1765544828.1272466,0,0,9806,1225.750
1765544828.1312523,0,0,8580,1072.500
1765544828.1352637,0,0,15656,1957.000
1765544828.1392522,0,0,17543,2192.875
1765544828.1432357,1,1,14456,1807.000
1765544828.147227,0,0,9949,1243.625
1765544828.1512349,0,0,8140,1017.500
1765544828.1552484,0,0,15265,1908.125
1765544828.159245,0,0,17356,2169.500
1765544828.1632366,1,1,14231,1778.875
1765544828.1672258,0,0,9793,1224.125
1765544828.1712394,0,0,8080,1010.000
1765544828.1752524,0,0,15254,1906.750
1765544828.1792505,0,0,17583,2197.875
1765544828.1832492,1,1,14773,1846.625
1765544828.1872785,0,0,10256,1282.000
1765544828.1912487,0,0,8206,1025.750
1765544828.1952467,0,0,15208,1901.000
1765544828.1992505,0,0,17718,2214.750
1765544828.2032485,1,1,15196,1899.500
1765544828.207242,0,0,10643,1330.375
1765544828.2112443,0,0,8132,1016.500
1765544828.215242,0,0,14966,1870.750
1765544828.2192433,0,0,17635,2204.375
1765544828.2232456,1,1,15129,1891.125
1765544828.2272437,0,0,10597,1324.625
1765544828.2312434,0,0,7937,992.125
1765544828.2352414,0,0,14727,1840.875
1765544828.2392423,0,0,17621,2202.625
1765544828.243248,1,1,15273,1909.125
1765544828.2472425,0,0,10739,1342.375
1765544828.2512455,0,0,7831,978.875
1765544828.2552412,0,0,14531,1816.375
1765544828.2592416,0,0,17682,2210.250
1765544828.2632456,1,1,15678,1959.750
1765544828.2672422,0,0,11148,1393.500
1765544828.2712438,0,0,7888,986.000
1765544828.275249,0,0,14173,1771.625
1765544828.27924,0,0,17491,2186.375
1765544828.2833273,1,1,15298,1912.250
1765544828.287298,0,0,10789,1348.625
1765544828.2912512,0,0,7713,964.125
1765544828.295228,0,0,14142,1767.750
1765544828.299225,0,0,17637,2204.625
1765544828.3032436,1,1,15906,1988.250
1765544828.3072455,0,0,7822,977.750
1765544828.311247,0,0,13793,1724.125
1765544828.3152323,0,0,17552,2194.000
1765544828.319226,0,0,15933,1991.625
1765544828.3232303,1,1,11451,1431.375
1765544828.3272245,0,0,7679,959.875
1765544828.331248,0,0,13287,1660.875
1765544828.3352506,0,0,17368,2171.000
1765544828.3392475,0,0,15691,1961.375
1765544828.3432345,1,1,11222,1402.750
1765544828.347222,0,0,7643,955.375
1765544828.3512309,0,0,13307,1663.375
1765544828.355244,0,0,17486,2185.750
1765544828.3592412,0,0,16231,2028.875
1765544828.3632314,1,1,11806,1475.750
1765544828.3672225,0,0,7870,983.750
1765544828.3712413,0,0,13039,1629.875
1765544828.3752477,0,0,17445,2180.625
1765544828.3792448,0,0,16434,2054.250
1765544828.383249,1,1,12064,1508.000
1765544828.3872774,0,0,8006,1000.750
1765544828.391244,0,0,12743,1592.875
1765544828.3952556,0,0,17318,2164.750
1765544828.3992414,0,0,16183,2022.875
1765544828.4032445,1,1,11784,1473.000
1765544828.407237,0,0,7817,977.125
1765544828.4112413,0,0,12431,1553.875
1765544828.4152431,0,0,17290,2161.250
1765544828.4192395,0,0,16547,2068.375
1765544828.4232414,1,1,12247,1530.875
1765544828.427236,0,0,8047,1005.875
1765544828.4312396,0,0,12026,1503.250
1765544828.4352345,0,0,17157,2144.625
1765544828.439248,0,0,16465,2058.125
1765544828.4432435,1,1,12171,1521.375
1765544828.4472399,0,0,7967,995.875
1765544828.451241,0,0,11612,1451.500
1765544828.4552495,0,0,17048,2131.000
1765544828.459241,0,0,16571,2071.375
1765544828.4632452,1,1,12338,1542.250
1765544828.4672396,0,0,8078,1009.750
1765544828.4712515,0,0,11344,1418.000
1765544828.47524,0,0,16987,2123.375
1765544828.4792387,0,0,16769,2096.125
1765544828.488735,0,0,8387,1048.375
1765544828.4912746,0,0,11785,1473.125
1765544828.495228,0,0,17175,2146.875
1765544828.4992254,0,0,17465,2183.125
1765544828.5032566,1,1,13648,1706.000
1765544828.5072439,0,0,9037,1129.625
1765544828.5112438,0,0,11129,1391.125
1765544828.5152283,0,0,16902,2112.750
1765544828.519234,0,0,17064,2133.000
1765544828.5232437,1,1,13087,1635.875
1765544828.5272412,0,0,8613,1076.625
1765544828.5312438,0,0,10302,1287.750
1765544828.5352385,0,0,16596,2074.500
1765544828.539236,0,0,16896,2112.000
1765544828.5432389,1,1,12928,1616.000
1765544828.5472374,0,0,8584,1073.000
1765544828.5512395,0,0,10158,1269.750
1765544828.5552564,0,0,16561,2070.125
1765544828.5592356,0,0,17127,2140.875
1765544828.5632396,1,1,13304,1663.000
1765544828.567234,0,0,8876,1109.500
1765544828.5712545,0,0,9978,1247.250
1765544828.575224,0,0,16479,2059.875
1765544828.5792212,0,0,17246,2155.750
1765544828.583242,1,1,13538,1692.250
1765544828.5872405,0,0,9061,1132.625
1765544828.5912633,0,0,9533,1191.625
1765544828.595226,0,0,16255,2031.875
1765544828.5992205,0,0,17119,2139.875
1765544828.6032388,1,1,13399,1674.875
1765544828.6072404,0,0,9011,1126.375
1765544828.6112363,0,0,9471,1183.875
1765544828.6152205,0,0,16254,2031.750
1765544828.6192222,0,0,17483,2185.375
1765544828.6232383,1,1,14078,1759.750
1765544828.6272373,0,0,9542,1192.750
1765544828.631236,0,0,9141,1142.625
1765544828.635241,0,0,16016,2002.000
1765544828.639241,0,0,17346,2168.250
1765544828.643242,1,1,13913,1739.125
1765544828.647237,0,0,9456,1182.000
1765544828.6512394,0,0,9041,1130.125
1765544828.6552362,0,0,15970,1996.250
1765544828.6592386,0,0,17550,2193.750
1765544828.663243,1,1,14368,1796.000
1765544828.6672375,0,0,9826,1228.250
1765544828.6712365,0,0,8808,1101.000
1765544828.675234,0,0,15781,1972.625
1765544828.6792393,0,0,17556,2194.500
1765544828.6832407,1,1,14487,1810.875
1765544828.6873157,0,0,9949,1243.625
1765544828.6912596,0,0,8859,1107.375
1765544828.6952193,0,0,15785,1973.125
1765544828.6992362,0,0,17726,2215.750
1765544828.703239,1,1,14936,1867.000
1765544828.707239,0,0,10346,1293.250
1765544828.7112396,0,0,8358,1044.750
1765544828.7152226,0,0,15291,1911.375
1765544828.7192369,0,0,17385,2173.125
1765544828.7232401,1,1,14358,1794.750
1765544828.7272398,0,0,9885,1235.625
1765544828.7312415,0,0,8178,1022.250
1765544828.7352448,0,0,15235,1904.375
1765544828.739237,0,0,17594,2199.250
1765544828.7432544,1,1,14937,1867.125
1765544828.7472382,0,0,10394,1299.250
1765544828.7512374,0,0,8188,1023.500
1765544828.7552357,0,0,15081,1885.125
1765544828.7592466,0,0,17580,2197.500
1765544828.7633965,1,1,15005,1875.625
1765544828.7674837,0,0,10464,1308.000
1765544828.7712872,0,0,8560,1070.000
1765544828.775244,0,0,15307,1913.375
1765544828.7792358,0,0,17744,2218.000
1765544828.7832348,1,1,15366,1920.750
1765544828.7872338,0,0,10788,1348.500
1765544828.7912784,0,0,7910,988.750
1765544828.7952383,0,0,14532,1816.500
1765544828.7992365,0,0,17471,2183.875
1765544828.803238,1,1,15092,1886.500
1765544828.8072348,0,0,10567,1320.875
1765544828.8112419,0,0,7594,949.250
1765544828.8152418,0,0,14196,1774.500
1765544828.8192384,0,0,17428,2178.500
1765544828.8232272,1,1,15217,1902.125
1765544828.827247,0,0,10707,1338.375
1765544828.8312716,0,0,7510,938.750
1765544828.8354328,0,0,13870,1733.750
1765544828.8393838,0,0,17340,2167.500
1765544828.8432608,1,1,15168,1896.000
1765544828.8472342,0,0,10667,1333.375
1765544828.8512318,0,0,7573,946.625
1765544828.8552327,0,0,13969,1746.125
1765544828.8592348,0,0,15974,1996.750
1765544828.8632336,1,1,11486,1435.750
1765544828.8672304,0,0,7857,982.125
1765544828.871247,0,0,13690,1711.250
1765544828.8752365,0,0,17440,2180.000
1765544828.8792338,0,0,15712,1964.000
1765544828.8832371,1,1,11219,1402.375
1765544828.8873153,0,0,7837,979.625
1765544828.8912945,0,0,13854,1731.750
1765544828.8952217,0,0,17633,2204.125
1765544828.8992386,0,0,16569,2071.125
1765544828.9032404,1,1,12186,1523.250
1765544828.9072356,0,0,8143,1017.875
1765544828.911234,0,0,13314,1664.250
1765544828.9152179,0,0,17423,2177.875
1765544828.9192164,0,0,16165,2020.625
1765544828.9232368,1,1,11738,1467.250
1765544828.9272335,0,0,7779,972.375
1765544828.9312396,0,0,12813,1601.625
1765544828.935236,0,0,17289,2161.125
1765544828.939236,0,0,16168,2021.000
1765544828.9432464,1,1,11773,1471.625
1765544828.9472425,0,0,7741,967.625
1765544828.9512408,0,0,12405,1550.625
1765544828.9552212,0,0,17178,2147.250
1765544828.959218,0,0,16167,2020.875
1765544828.9632351,1,1,11797,1474.625
1765544828.967235,0,0,7788,973.500
1765544828.9712389,0,0,12271,1533.875
1765544828.9752223,0,0,17199,2149.875
1765544828.9792166,0,0,16538,2067.250
1765544828.983239,1,1,12259,1532.375
1765544828.9872377,0,0,8050,1006.250
1765544828.9912817,0,0,11948,1493.500
1765544828.9952402,0,0,17093,2136.625
1765544828.9992325,0,0,16487,2060.875
1765544829.0032384,1,1,12221,1527.625
1765544829.0072315,0,0,8048,1006.000
1765544829.011241,0,0,11769,1471.125
1765544829.015234,0,0,17075,2134.375
1765544829.0192347,0,0,16783,2097.875
1765544829.0232286,1,1,12627,1578.375
1765544829.0272174,0,0,8310,1038.750
1765544829.0312212,0,0,11491,1436.375
1765544829.0352373,0,0,16992,2124.000
1765544829.0392365,0,0,16887,2110.875
1765544829.043236,1,1,12802,1600.250
1765544829.0472305,0,0,8433,1054.125
1765544829.0512328,0,0,11128,1391.000
1765544829.0552354,0,0,16863,2107.875
1765544829.0592334,0,0,16857,2107.125
1765544829.0632355,1,1,12797,1599.625
1765544829.0672307,0,0,8463,1057.875
1765544829.0712318,0,0,10964,1370.500
1765544829.0752144,0,0,16835,2104.375
1765544829.0792155,0,0,17197,2149.625
1765544829.0832148,1,1,13342,1667.750
1765544829.0872908,0,0,8842,1105.250
1765544829.0912478,0,0,10748,1343.500
1765544829.0952184,0,0,16741,2092.625
1765544829.0992162,0,0,17192,2149.000
1765544829.1032343,1,1,13368,1671.000
1765544829.1072323,0,0,8887,1110.875
1765544829.1112325,0,0,10172,1271.500
1765544829.1152208,0,0,16497,2062.125
1765544829.1192188,0,0,17049,2131.125
1765544829.123237,1,1,13217,1652.125
1765544829.1272342,0,0,8812,1101.500
1765544829.1312318,0,0,9876,1234.500
1765544829.1352303,0,0,16390,2048.750
1765544829.1392336,0,0,17191,2148.875
1765544829.1432335,1,1,13501,1687.625
1765544829.1472359,0,0,9048,1131.000
1765544829.1512392,0,0,9728,1216.000
1765544829.1552205,0,0,16319,2039.875
1765544829.1592145,0,0,17356,2169.500
1765544829.163234,1,1,13836,1729.500
1765544829.167231,0,0,9337,1167.125
1765544829.1712358,0,0,9522,1190.250
1765544829.1752162,0,0,16190,2023.750
1765544829.179223,0,0,17391,2173.875
1765544829.1832345,1,1,13965,1745.625
1765544829.1872334,0,0,9447,1180.875
1765544829.1912735,0,0,8975,1121.875
1765544829.1952355,0,0,15877,1984.625
1765544829.199237,0,0,17218,2152.250
1765544829.2032356,1,1,13759,1719.875
1765544829.2072318,0,0,9331,1166.375
1765544829.2112348,0,0,8929,1116.125
1765544829.2152326,0,0,15868,1983.500
1765544829.2192283,0,0,17469,2183.625
1765544829.2232318,1,1,14289,1786.125
1765544829.2272303,0,0,9760,1220.000
1765544829.2312331,0,0,8575,1071.875
1765544829.235234,0,0,15569,1946.125
1765544829.239228,0,0,17313,2164.125
1765544829.2432334,1,1,14091,1761.375
1765544829.247238,0,0,9627,1203.375
1765544829.2512348,0,0,8515,1064.375
1765544829.2552347,0,0,15551,1943.875
1765544829.2592318,0,0,17572,2196.500
1765544829.2632437,1,1,14723,1840.375
1765544829.267228,0,0,10170,1271.250
1765544829.2712343,0,0,8461,1057.625
1765544829.275236,0,0,15379,1922.375
1765544829.2792416,0,0,17541,2192.625
1765544829.2832315,1,1,14753,1844.125
1765544829.2873046,0,0,10212,1276.500
1765544829.2912674,0,0,8572,1071.500
1765544829.295216,0,0,15437,1929.625
1765544829.2992146,0,0,17745,2218.125
1765544829.303235,1,1,15352,1919.000
1765544829.30723,0,0,10765,1345.625
1765544829.3112328,0,0,8166,1020.750
1765544829.3152194,0,0,14842,1855.250
1765544829.3192167,0,0,17310,2163.750
1765544829.3232174,1,1,14485,1810.625
1765544829.3272116,0,0,10000,1250.000
1765544829.3312159,0,0,7688,961.000
1765544829.3352516,0,0,14618,1827.250
1765544829.3392348,0,0,17451,2181.375
1765544829.343226,1,1,15030,1878.750
1765544829.3472137,0,0,10503,1312.875
1765544829.3512204,0,0,7764,970.500
1765544829.3552284,0,0,14432,1804.000
1765544829.3592293,0,0,17425,2178.125
1765544829.3632207,1,1,15081,1885.125
1765544829.3672137,0,0,10557,1319.625
1765544829.3712268,0,0,7555,944.375
1765544829.3752322,0,0,14063,1757.875
1765544829.3792284,0,0,17359,2169.875
1765544829.3832324,1,1,15146,1893.250
1765544829.3872285,0,0,10638,1329.750
1765544829.3912709,0,0,7684,960.500
1765544829.39523,0,0,14144,1768.000
1765544829.399224,0,0,17552,2194.000
1765544829.4032311,1,1,15810,1976.250
1765544829.4072306,0,0,11300,1412.500
1765544829.4112315,0,0,7914,989.250
1765544829.4152272,0,0,17551,2193.875
1765544829.419227,0,0,15985,1998.125
1765544829.4232295,1,1,11497,1437.125
1765544829.427227,0,0,7911,988.875
1765544829.4312317,0,0,13731,1716.375
1765544829.43523,0,0,17463,2182.875
1765544829.4392276,0,0,15923,1990.375
1765544829.4432302,1,1,11443,1430.375
1765544829.4472287,0,0,7766,970.750
1765544829.4512322,0,0,13403,1675.375
1765544829.4552314,0,0,17419,2177.375
1765544829.4592276,0,0,16146,2018.250
1765544829.4632294,1,1,11715,1464.375
1765544829.4672246,0,0,7922,990.250
1765544829.4712298,0,0,13268,1658.500
1765544829.4752324,0,0,17406,2175.750
1765544829.479229,0,0,16306,2038.250
1765544829.4832294,1,1,11911,1488.875
1765544829.4926891,0,0,13264,1658.000
1765544829.495252,0,0,17440,2180.000
1765544829.4992332,0,0,16619,2077.375
1765544829.5032227,1,1,12310,1538.750
1765544829.5072098,0,0,8100,1012.500
1765544829.5112195,0,0,12506,1563.250
1765544829.51523,0,0,17195,2149.375
1765544829.519229,0,0,16364,2045.500
1765544829.52322,1,1,12034,1504.250
1765544829.5272098,0,0,7841,980.125
1765544829.5312274,0,0,11991,1498.875
1765544829.5352318,0,0,17061,2132.625
1765544829.5392263,0,0,16442,2055.250
1765544829.5432281,1,1,12174,1521.750
1765544829.5472217,0,0,7975,996.875
1765544829.551227,0,0,11802,1475.250
1765544829.5552278,0,0,17013,2126.625
1765544829.5592275,0,0,16509,2063.625
1765544829.5632286,1,1,12271,1533.875
1765544829.5672314,0,0,8069,1008.625
1765544829.571252,0,0,11639,1454.875
1765544829.5752122,0,0,16996,2124.500
1765544829.5792093,0,0,16805,2100.625
1765544829.5832272,1,1,12690,1586.250
1765544829.5872269,0,0,8314,1039.250
1765544829.5912652,0,0,11211,1401.375
1765544829.5952117,0,0,16839,2104.875
1765544829.5992074,0,0,16661,2082.625
1765544829.6032305,1,1,12527,1565.875
1765544829.6072268,0,0,8241,1030.125
1765544829.611231,0,0,11005,1375.625
1765544829.6152096,0,0,16809,2101.125
1765544829.6192079,0,0,17026,2128.250
1765544829.6232235,1,1,13087,1635.875
1765544829.6272233,0,0,8613,1076.625
1765544829.6312258,0,0,10516,1314.500
1765544829.6352205,0,0,16598,2074.750
1765544829.639786,0,0,16786,2098.250
1765544829.6432328,1,1,12781,1597.625
1765544829.6472116,0,0,8448,1056.000
1765544829.6512089,0,0,10259,1282.375
1765544829.6552057,0,0,16533,2066.625
1765544829.6592066,0,0,17037,2129.625
1765544829.6632087,1,1,13200,1650.000
1765544829.667206,0,0,8788,1098.500
1765544829.6712132,0,0,10084,1260.500
1765544829.675227,0,0,16430,2053.750
1765544829.6792235,0,0,16949,2118.625
1765544829.6832266,1,1,13082,1635.250
1765544829.6872215,0,0,8716,1089.500
1765544829.6913197,0,0,9643,1205.375
1765544829.695246,0,0,16267,2033.375
1765544829.6992302,0,0,17121,2140.125
1765544829.7032163,1,1,13436,1679.500
1765544829.7072065,0,0,9014,1126.750
1765544829.711216,0,0,9575,1196.875
1765544829.7152264,0,0,16227,2028.375
1765544829.7192254,0,0,17326,2165.750
1765544829.7232125,1,1,13833,1729.125
1765544829.7272055,0,0,9337,1167.125
1765544829.7312346,0,0,9371,1171.375
1765544829.735229,0,0,16095,2011.875
1765544829.7392273,0,0,17375,2171.875
1765544829.7432306,1,1,13994,1749.250
1765544829.7472234,0,0,9493,1186.625
1765544829.7512245,0,0,9190,1148.750
1765544829.755208,0,0,15974,1996.750
1765544829.7592063,0,0,17438,2179.750
1765544829.7633832,1,1,14192,1774.000
1765544829.7674773,0,0,9682,1210.250
1765544829.7712693,0,0,9647,1205.875
1765544829.77523,0,0,16190,2023.750
1765544829.7792253,0,0,17832,2229.000
1765544829.7832313,1,1,15098,1887.250
1765544829.7872236,0,0,10449,1306.125
1765544829.7912269,0,0,8863,1107.875
1765544829.795223,0,0,15596,1949.500
1765544829.7992244,0,0,17326,2165.750
1765544829.803227,1,1,14151,1768.875
1765544829.8072248,0,0,9659,1207.375
1765544829.8112254,0,0,8251,1031.375
1765544829.8152256,0,0,15315,1914.375
1765544829.8192244,0,0,17412,2176.500
1765544829.8232167,1,1,14512,1814.000
1765544829.8272057,0,0,9987,1248.375
1765544829.831212,0,0,8314,1039.250
1765544829.8352222,0,0,15263,1907.875
1765544829.8392205,0,0,17509,2188.625
1765544829.8432271,1,1,14808,1851.000
1765544829.8472216,0,0,10259,1282.375
1765544829.851228,0,0,8269,1033.625
1765544829.8552117,0,0,15113,1889.125
1765544829.8592224,0,0,17491,2186.375
1765544829.8632278,1,1,14861,1857.625
1765544829.8672228,0,0,10315,1289.375
1765544829.8712265,0,0,7999,999.875
1765544829.8752203,0,0,14848,1856.000
1765544829.879218,0,0,17516,2189.500
1765544829.8832211,1,1,15142,1892.750
1765544829.8872197,0,0,10591,1323.875
1765544829.891308,0,0,8071,1008.875
1765544829.8952432,0,0,14740,1842.500
1765544829.8992198,0,0,17504,2188.000
1765544829.903218,1,1,15194,1899.250
1765544829.9072225,0,0,10643,1330.375
1765544829.911227,0,0,7904,988.000
1765544829.9152067,0,0,14504,1813.000
1765544829.9191997,0,0,17495,2186.875
1765544829.92323,1,1,15368,1921.000
1765544829.9272234,0,0,10827,1353.375
1765544829.9312272,0,0,7859,982.375
1765544829.9352126,0,0,14312,1789.000
1765544829.9392262,0,0,17530,2191.250
1765544829.9432378,1,1,15711,1963.875
1765544829.9472294,0,0,11184,1398.000
1765544829.9512303,0,0,7841,980.125
1765544829.955209,0,0,13978,1747.250
1765544829.9592192,0,0,17401,2175.125
1765544829.963228,1,1,15522,1940.250
1765544829.9672213,0,0,7667,958.375
1765544829.9712229,0,0,13745,1718.125
