Timestamp,LO_plus,LO_minus,Raw_ADC,Voltage_mV
1764839373.6451483,1,1,5,0.625
1764839373.6469355,1,1,5,0.625
1764839373.6486318,1,1,2,0.250
1764839373.6512802,1,1,6,0.750
1764839373.6552699,1,1,14,1.750
1764839373.6592662,1,1,17,2.125
1764839373.663327,1,1,16,2.000
1764839373.6672778,1,1,13,1.625
1764839373.6712656,1,1,16,2.000
1764839373.6752636,1,1,21,2.625
1764839373.6792629,1,1,24,3.000
1764839373.6832726,1,1,22,2.750
1764839373.6872654,1,1,19,2.375
1764839373.6913142,1,1,21,2.625
1764839373.6952734,1,1,26,3.250
1764839373.6992638,1,1,28,3.500
1764839373.7032702,1,1,26,3.250
1764839373.7072651,1,1,23,2.875
1764839373.7112715,1,1,23,2.875
1764839373.7152734,1,1,28,3.500
1764839373.7192726,1,1,30,3.750
1764839373.723324,1,1,28,3.500
1764839373.7272706,1,1,24,3.000
1764839373.731274,1,1,25,3.125
1764839373.7352762,1,1,29,3.625
1764839373.7392747,1,1,31,3.875
1764839373.7432709,1,1,30,3.750
1764839373.7472622,1,1,26,3.250
1764839373.751266,1,1,26,3.250
1764839373.755267,1,1,30,3.750
1764839373.759264,1,1,32,4.000
1764839373.7633262,1,1,31,3.875
1764839373.7672796,1,1,26,3.250
1764839373.771276,1,1,26,3.250
1764839373.775263,1,1,30,3.750
1764839373.779262,1,1,33,4.125
1764839373.7832677,1,1,30,3.750
1764839373.7872622,1,1,26,3.250
1764839373.7912626,1,1,27,3.375
1764839373.7952635,1,1,31,3.875
1764839373.7992623,1,1,33,4.125
1764839373.80327,1,1,31,3.875
1764839373.807263,1,1,26,3.250
1764839373.8112655,1,1,26,3.250
1764839373.8152707,1,1,30,3.750
1764839373.8192842,1,1,33,4.125
1764839373.8233051,1,1,32,4.000
1764839373.8272953,1,1,27,3.375
1764839373.8312714,1,1,27,3.375
1764839373.8352625,1,1,30,3.750
1764839373.8393283,1,1,34,4.250
1764839373.8432784,1,1,32,4.000
1764839373.8472643,1,1,27,3.375
1764839373.8513024,1,1,26,3.250
1764839373.855271,1,1,30,3.750
1764839373.8592622,1,1,33,4.125
1764839373.8632767,1,1,32,4.000
1764839373.867272,1,1,27,3.375
1764839373.8712776,1,1,26,3.250
1764839373.8752673,1,1,29,3.625
1764839373.879292,1,1,33,4.125
1764839373.8832884,1,1,32,4.000
1764839373.8872635,1,1,27,3.375
1764839373.8912692,1,1,27,3.375
1764839373.895274,1,1,30,3.750
1764839373.8992727,1,1,34,4.250
1764839373.9032645,1,1,32,4.000
1764839373.9072604,1,1,28,3.500
1764839373.9113085,1,1,26,3.250
1764839373.9152703,1,1,29,3.625
1764839373.9192624,1,1,33,4.125
1764839373.9232774,1,1,33,4.125
1764839373.9272704,1,1,28,3.500
1764839373.9313157,1,1,27,3.375
1764839373.935269,1,1,29,3.625
1764839373.9392629,1,1,33,4.125
1764839373.9432766,1,1,33,4.125
1764839373.9472718,1,1,28,3.500
1764839373.9512682,1,1,26,3.250
1764839373.9552608,1,1,29,3.625
1764839373.9592597,1,1,33,4.125
1764839373.9633136,1,1,33,4.125
1764839373.967268,1,1,27,3.375
1764839373.9712682,1,1,26,3.250
1764839373.9752681,1,1,29,3.625
1764839373.9792674,1,1,33,4.125
1764839373.9832642,1,1,33,4.125
1764839373.9872603,1,1,28,3.500
1764839373.9912791,1,1,26,3.250
1764839373.9952655,1,1,29,3.625
1764839373.999268,1,1,33,4.125
1764839374.0033193,1,1,33,4.125
1764839374.0072787,1,1,28,3.500
1764839374.0112743,1,1,26,3.250
1764839374.015261,1,1,28,3.500
1764839374.019257,1,1,33,4.125
1764839374.023272,1,1,33,4.125
1764839374.0272698,1,1,29,3.625
1764839374.031266,1,1,27,3.375
1764839374.0352604,1,1,28,3.500
1764839374.0393333,1,1,33,4.125
1764839374.0432725,1,1,33,4.125
1764839374.0472596,1,1,28,3.500
1764839374.0513055,1,1,28,3.500
1764839374.055271,1,1,33,4.125
1764839374.0592623,1,1,33,4.125
1764839374.0632732,1,1,29,3.625
1764839374.067268,1,1,26,3.250
1764839374.071275,1,1,28,3.500
1764839374.0752614,1,1,33,4.125
1764839374.0792599,1,1,33,4.125
1764839374.0833087,1,1,29,3.625
1764839374.0872655,1,1,26,3.250
1764839374.0912633,1,1,28,3.500
1764839374.0952704,1,1,33,4.125
1764839374.0992692,1,1,33,4.125
1764839374.103265,1,1,29,3.625
1764839374.1072593,1,1,26,3.250
1764839374.1113124,1,1,28,3.500
1764839374.1152864,1,1,33,4.125
1764839374.1192603,1,1,33,4.125
1764839374.1232762,1,1,29,3.625
1764839374.127269,1,1,27,3.375
1764839374.1313114,1,1,28,3.500
1764839374.1352625,1,1,32,4.000
1764839374.1392577,1,1,33,4.125
1764839374.1432703,1,1,29,3.625
1764839374.1473782,1,1,26,3.250
1764839374.1514292,1,1,27,3.375
1764839374.1553485,1,1,32,4.000
1764839374.1593406,1,1,32,4.000
1764839374.163344,1,1,30,3.750
1764839374.1673427,1,1,26,3.250
1764839374.1713436,1,1,28,3.500
1764839374.175329,1,1,32,4.000
1764839374.1793303,1,1,33,4.125
1764839374.1833484,1,1,30,3.750
1764839374.187391,1,1,26,3.250
1764839374.1913528,1,1,27,3.375
1764839374.1953313,1,1,32,4.000
1764839374.1993303,1,1,33,4.125
1764839374.203352,1,1,31,3.875
1764839374.2073426,1,1,26,3.250
1764839374.2114186,1,1,27,3.375
1764839374.215338,1,1,32,4.000
1764839374.2193308,1,1,33,4.125
1764839374.223347,1,1,31,3.875
1764839374.2273464,1,1,26,3.250
1764839374.2313445,1,1,27,3.375
1764839374.2353282,1,1,32,4.000
1764839374.239437,1,1,33,4.125
1764839374.2464466,1,1,27,3.375
1764839374.2483425,1,1,27,3.375
1764839374.2513974,1,1,26,3.250
1764839374.2553651,1,1,31,3.875
1764839374.2593718,1,1,34,4.250
1764839374.263375,1,1,31,3.875
1764839374.2673612,1,1,27,3.375
1764839374.2714496,1,1,27,3.375
1764839374.2753692,1,1,32,4.000
1764839374.2793577,1,1,33,4.125
1764839374.283366,1,1,32,4.000
1764839374.287361,1,1,27,3.375
1764839374.2913618,1,1,27,3.375
1764839374.2953606,1,1,31,3.875
1764839374.299356,1,1,34,4.250
1764839374.3033674,1,1,31,3.875
1764839374.3073769,1,1,27,3.375
1764839374.311422,1,1,27,3.375
1764839374.3154042,1,1,31,3.875
1764839374.3193746,1,1,33,4.125
1764839374.3233726,1,1,32,4.000
1764839374.3273678,1,1,26,3.250
1764839374.3314483,1,1,28,3.500
1764839374.335379,1,1,31,3.875
1764839374.3393738,1,1,33,4.125
1764839374.3433702,1,1,31,3.875
1764839374.3474064,1,1,27,3.375
1764839374.3513727,1,1,27,3.375
1764839374.3553722,1,1,31,3.875
1764839374.35942,1,1,34,4.250
1764839374.3633895,1,1,32,4.000
1764839374.367373,1,1,27,3.375
1764839374.3713717,1,1,27,3.375
1764839374.3753743,1,1,30,3.750
1764839374.379386,1,1,34,4.250
1764839374.3833675,1,1,32,4.000
1764839374.3873568,1,1,27,3.375
1764839374.3913572,1,1,27,3.375
1764839374.3953586,1,1,30,3.750
1764839374.399393,1,1,33,4.125
1764839374.4034255,1,1,32,4.000
1764839374.407386,1,1,27,3.375
1764839374.4113705,1,1,27,3.375
1764839374.4153569,1,1,30,3.750
1764839374.4193563,1,1,33,4.125
1764839374.4233813,1,1,32,4.000
1764839374.4273767,1,1,28,3.500
1764839374.4313695,1,1,26,3.250
1764839374.4353604,1,1,30,3.750
1764839374.4394827,1,1,34,4.250
1764839374.4433973,1,1,33,4.125
1764839374.4473984,1,1,27,3.375
1764839374.4513693,1,1,29,3.625
1764839374.4553778,1,1,34,4.250
1764839374.459385,1,1,32,4.000
1764839374.4633687,1,1,27,3.375
1764839374.4673574,1,1,27,3.375
1764839374.4713554,1,1,30,3.750
1764839374.4753597,1,1,33,4.125
1764839374.479359,1,1,33,4.125
1764839374.4833646,1,1,28,3.500
1764839374.4874213,1,1,26,3.250
1764839374.491562,1,1,29,3.625
1764839374.495365,1,1,34,4.250
1764839374.499359,1,1,33,4.125
1764839374.50338,1,1,28,3.500
1764839374.5073736,1,1,26,3.250
1764839374.5113664,1,1,29,3.625
1764839374.5153582,1,1,33,4.125
1764839374.519358,1,1,33,4.125
1764839374.5233629,1,1,28,3.500
1764839374.5273547,1,1,27,3.375
1764839374.5314028,1,1,29,3.625
1764839374.535395,1,1,33,4.125
1764839374.5393727,1,1,33,4.125
1764839374.5433662,1,1,28,3.500
1764839374.5474312,1,1,26,3.250
1764839374.5514245,1,1,29,3.625
1764839374.5553567,1,1,33,4.125
1764839374.5593536,1,1,33,4.125
1764839374.563376,1,1,28,3.500
1764839374.5673764,1,1,26,3.250
1764839374.5713673,1,1,28,3.500
1764839374.575365,1,1,33,4.125
1764839374.5793536,1,1,33,4.125
1764839374.583359,1,1,29,3.625
1764839374.5873551,1,1,26,3.250
1764839374.5913763,1,1,28,3.500
1764839374.5954363,1,1,33,4.125
1764839374.5993907,1,1,33,4.125
1764839374.603373,1,1,28,3.500
1764839374.6074288,1,1,26,3.250
1764839374.6114163,1,1,28,3.500
1764839374.6153593,1,1,33,4.125
1764839374.6193933,1,1,33,4.125
1764839374.6233766,1,1,29,3.625
1764839374.6273794,1,1,26,3.250
1764839374.6313696,1,1,28,3.500
1764839374.6353586,1,1,32,4.000
1764839374.6446323,1,1,29,3.625
1764839374.6474423,1,1,26,3.250
1764839374.6513999,1,1,27,3.375
1764839374.6553638,1,1,32,4.000
1764839374.659365,1,1,33,4.125
1764839374.6633651,1,1,29,3.625
1764839374.6673903,1,1,26,3.250
1764839374.671356,1,1,28,3.500
1764839374.675354,1,1,32,4.000
1764839374.6793947,1,1,33,4.125
1764839374.6833727,1,1,30,3.750
1764839374.6873574,1,1,26,3.250
1764839374.6913674,1,1,27,3.375
1764839374.6953838,1,1,32,4.000
1764839374.6993997,1,1,33,4.125
1764839374.7034037,1,1,30,3.750
1764839374.7073643,1,1,26,3.250
1764839374.7113664,1,1,28,3.500
1764839374.7153752,1,1,32,4.000
1764839374.7193723,1,1,33,4.125
1764839374.7233655,1,1,30,3.750
1764839374.7273803,1,1,26,3.250
1764839374.7314339,1,1,28,3.500
1764839374.7353609,1,1,32,4.000
1764839374.7393522,1,1,33,4.125
1764839374.7433808,1,1,30,3.750
1764839374.747442,1,1,27,3.375
1764839374.7514307,1,1,27,3.375
1764839374.7553594,1,1,33,4.125
1764839374.7593565,1,1,34,4.250
1764839374.763378,1,1,30,3.750
1764839374.7673693,1,1,27,3.375
1764839374.7713618,1,1,27,3.375
1764839374.7753549,1,1,32,4.000
1764839374.7794085,1,1,33,4.125
1764839374.7833867,1,1,30,3.750
1764839374.7873538,1,1,26,3.250
1764839374.7913628,1,1,27,3.375
1764839374.7953715,1,1,31,3.875
1764839374.7993722,1,1,33,4.125
1764839374.8033664,1,1,31,3.875
1764839374.8073545,1,1,26,3.250
1764839374.8113527,1,1,27,3.375
1764839374.8153548,1,1,32,4.000
1764839374.8193696,1,1,33,4.125
1764839374.823415,1,1,32,4.000
1764839374.827376,1,1,27,3.375
1764839374.8313658,1,1,27,3.375
1764839374.8353522,1,1,31,3.875
1764839374.8393497,1,1,34,4.250
1764839374.843439,1,1,31,3.875
1764839374.847428,1,1,27,3.375
1764839374.8513725,1,1,32,4.000
1764839374.8553548,1,1,33,4.125
1764839374.8593504,1,1,31,3.875
1764839374.863372,1,1,27,3.375
1764839374.8673828,1,1,27,3.375
1764839374.871364,1,1,31,3.875
1764839374.8753543,1,1,33,4.125
1764839374.8794122,1,1,32,4.000
1764839374.8833725,1,1,26,3.250
1764839374.8873518,1,1,27,3.375
1764839374.8913617,1,1,31,3.875
1764839374.8953707,1,1,34,4.250
1764839374.8994107,1,1,32,4.000
1764839374.9033608,1,1,26,3.250
1764839374.9073496,1,1,27,3.375
1764839374.9113758,1,1,31,3.875
1764839374.9153702,1,1,33,4.125
1764839374.9193668,1,1,32,4.000
1764839374.9233649,1,1,26,3.250
1764839374.92735,1,1,27,3.375
1764839374.9313524,1,1,30,3.750
1764839374.9353533,1,1,34,4.250
1764839374.939352,1,1,31,3.875
1764839374.943371,1,1,27,3.375
1764839374.9474106,1,1,27,3.375
1764839374.9514463,1,1,31,3.875
1764839374.9553783,1,1,33,4.125
1764839374.9593666,1,1,32,4.000
1764839374.9633715,1,1,27,3.375
1764839374.9673648,1,1,27,3.375
1764839374.9713664,1,1,30,3.750
1764839374.9753664,1,1,33,4.125
1764839374.9793618,1,1,32,4.000
1764839374.9833577,1,1,27,3.375
1764839374.9873528,1,1,27,3.375
1764839374.9915342,1,1,30,3.750
1764839374.9953794,1,1,33,4.125
1764839374.9993753,1,1,32,4.000
1764839375.0034132,1,1,27,3.375
1764839375.0073767,1,1,26,3.250
1764839375.011364,1,1,29,3.625
1764839375.015358,1,1,33,4.125
1764839375.019358,1,1,32,4.000
1764839375.0233746,1,1,28,3.500
1764839375.0274148,1,1,27,3.375
1764839375.0313735,1,1,30,3.750
1764839375.035356,1,1,33,4.125
1764839375.0393534,1,1,33,4.125
1764839375.0434337,1,1,28,3.500
1764839375.0474799,1,1,27,3.375
1764839375.0514567,1,1,29,3.625
1764839375.0554142,1,1,34,4.250
1764839375.059485,1,1,33,4.125
1764839375.0634253,1,1,28,3.500
1764839375.0674138,1,1,27,3.375
1764839375.0714447,1,1,29,3.625
1764839375.0754654,1,1,33,4.125
1764839375.0794399,1,1,32,4.000
1764839375.0834117,1,1,28,3.500
1764839375.0873961,1,1,27,3.375
1764839375.091405,1,1,29,3.625
1764839375.0954168,1,1,33,4.125
1764839375.0994153,1,1,33,4.125
1764839375.1033995,1,1,27,3.375
1764839375.1073933,1,1,26,3.250
1764839375.111406,1,1,29,3.625
1764839375.1154108,1,1,33,4.125
1764839375.119412,1,1,33,4.125
1764839375.123453,1,1,28,3.500
1764839375.1273987,1,1,26,3.250
1764839375.1314034,1,1,29,3.625
1764839375.1354167,1,1,33,4.125
1764839375.1394503,1,1,33,4.125
1764839375.143422,1,1,28,3.500
1764839375.1474972,1,1,27,3.375
1764839375.1513653,1,1,28,3.500
1764839375.1553679,1,1,33,4.125
1764839375.159368,1,1,32,4.000
1764839375.163364,1,1,28,3.500
1764839375.167355,1,1,26,3.250
1764839375.171354,1,1,28,3.500
1764839375.1753564,1,1,33,4.125
1764839375.1793945,1,1,33,4.125
1764839375.1833642,1,1,29,3.625
1764839375.1873538,1,1,26,3.250
1764839375.1913629,1,1,28,3.500
1764839375.1953692,1,1,33,4.125
1764839375.1993678,1,1,33,4.125
1764839375.203361,1,1,29,3.625
1764839375.207355,1,1,26,3.250
1764839375.211356,1,1,28,3.500
1764839375.2153523,1,1,32,4.000
1764839375.219349,1,1,33,4.125
1764839375.2233784,1,1,29,3.625
1764839375.227367,1,1,26,3.250
1764839375.2313666,1,1,28,3.500
1764839375.235366,1,1,33,4.125
1764839375.2394004,1,1,33,4.125
1764839375.243622,1,1,27,3.375
1764839375.2476401,1,1,28,3.500
1764839375.2514358,1,1,33,4.125
1764839375.2553952,1,1,33,4.125
1764839375.259373,1,1,30,3.750
1764839375.2633703,1,1,27,3.375
1764839375.2673602,1,1,28,3.500
1764839375.271362,1,1,32,4.000
1764839375.275399,1,1,33,4.125
1764839375.2793882,1,1,30,3.750
1764839375.2833683,1,1,27,3.375
1764839375.2873597,1,1,28,3.500
1764839375.2913606,1,1,33,4.125
1764839375.2953641,1,1,33,4.125
1764839375.2993639,1,1,30,3.750
1764839375.3037322,1,1,27,3.375
1764839375.3082852,1,1,27,3.375
1764839375.3115666,1,1,32,4.000
1764839375.3153813,1,1,33,4.125
1764839375.3193638,1,1,30,3.750
1764839375.3233666,1,1,26,3.250
1764839375.3274162,1,1,27,3.375
1764839375.3313777,1,1,32,4.000
1764839375.3353646,1,1,33,4.125
1764839375.3393602,1,1,31,3.875
1764839375.3433661,1,1,26,3.250
1764839375.3474236,1,1,27,3.375
1764839375.3513772,1,1,32,4.000
1764839375.355352,1,1,33,4.125
1764839375.3593514,1,1,30,3.750
1764839375.3633692,1,1,27,3.375
1764839375.3674161,1,1,28,3.500
1764839375.3713686,1,1,32,4.000
1764839375.3753512,1,1,33,4.125
1764839375.3793483,1,1,31,3.875
1764839375.3833697,1,1,26,3.250
1764839375.3873637,1,1,27,3.375
1764839375.3913636,1,1,31,3.875
1764839375.395351,1,1,33,4.125
1764839375.3993506,1,1,31,3.875
1764839375.4033656,1,1,27,3.375
1764839375.4073648,1,1,27,3.375
1764839375.4114463,1,1,32,4.000
1764839375.4153576,1,1,33,4.125
1764839375.4193492,1,1,32,4.000
1764839375.4233692,1,1,26,3.250
1764839375.4273622,1,1,27,3.375
1764839375.4313674,1,1,31,3.875
1764839375.435434,1,1,33,4.125
1764839375.4393764,1,1,31,3.875
1764839375.443435,1,1,27,3.375
1764839375.4474049,1,1,27,3.375
1764839375.451349,1,1,31,3.875
1764839375.4553978,1,1,34,4.250
1764839375.4593527,1,1,31,3.875
1764839375.4633586,1,1,27,3.375
1764839375.4673512,1,1,27,3.375
1764839375.4713569,1,1,31,3.875
1764839375.4754343,1,1,34,4.250
1764839375.4793878,1,1,32,4.000
1764839375.4833622,1,1,27,3.375
1764839375.4873493,1,1,27,3.375
1764839375.491362,1,1,31,3.875
1764839375.4954085,1,1,33,4.125
1764839375.4993799,1,1,31,3.875
1764839375.5033617,1,1,27,3.375
1764839375.5073519,1,1,27,3.375
1764839375.5113583,1,1,31,3.875
1764839375.515366,1,1,34,4.250
1764839375.519364,1,1,32,4.000
1764839375.523351,1,1,27,3.375
1764839375.5273447,1,1,27,3.375
1764839375.5313547,1,1,30,3.750
1764839375.5353622,1,1,34,4.250
1764839375.5393615,1,1,32,4.000
1764839375.5433605,1,1,27,3.375
1764839375.5474231,1,1,26,3.250
1764839375.551435,1,1,30,3.750
1764839375.5553546,1,1,34,4.250
1764839375.5593474,1,1,32,4.000
1764839375.5633652,1,1,27,3.375
1764839375.567359,1,1,27,3.375
1764839375.5713625,1,1,30,3.750
1764839375.5753505,1,1,33,4.125
1764839375.5793624,1,1,32,4.000
1764839375.5833664,1,1,27,3.375
1764839375.587359,1,1,27,3.375
1764839375.5913599,1,1,29,3.625
1764839375.5953615,1,1,33,4.125
1764839375.599362,1,1,32,4.000
1764839375.6033733,1,1,28,3.500
1764839375.6074073,1,1,27,3.375
1764839375.6113725,1,1,29,3.625
1764839375.6153474,1,1,33,4.125
1764839375.6193483,1,1,33,4.125
1764839375.6233673,1,1,28,3.500
1764839375.627364,1,1,27,3.375
1764839375.6313605,1,1,29,3.625
1764839375.635347,1,1,33,4.125
1764839375.6393442,1,1,32,4.000
1764839375.6484663,1,1,29,3.625
1764839375.651393,1,1,29,3.625
1764839375.6554193,1,1,32,4.000
1764839375.6593695,1,1,32,4.000
1764839375.663358,1,1,26,3.250
1764839375.667348,1,1,29,3.625
1764839375.671357,1,1,33,4.125
1764839375.6753604,1,1,32,4.000
1764839375.6793602,1,1,28,3.500
1764839375.6833844,1,1,27,3.375
1764839375.687362,1,1,29,3.625
1764839375.6914017,1,1,33,4.125
1764839375.6953797,1,1,33,4.125
1764839375.6993594,1,1,28,3.500
1764839375.7033572,1,1,27,3.375
1764839375.7073548,1,1,29,3.625
1764839375.7113585,1,1,33,4.125
1764839375.7154,1,1,33,4.125
1764839375.7193687,1,1,28,3.500
1764839375.7233546,1,1,26,3.250
1764839375.7273452,1,1,28,3.500
1764839375.7313502,1,1,33,4.125
1764839375.7353733,1,1,32,4.000
1764839375.7393646,1,1,28,3.500
1764839375.7433565,1,1,26,3.250
1764839375.7474492,1,1,28,3.500
1764839375.751371,1,1,33,4.125
1764839375.7553434,1,1,33,4.125
1764839375.7593424,1,1,29,3.625
1764839375.7633638,1,1,27,3.375
1764839375.76736,1,1,27,3.375
1764839375.7713559,1,1,34,4.250
1764839375.7753432,1,1,33,4.125
1764839375.7793415,1,1,30,3.750
1764839375.7833667,1,1,26,3.250
1764839375.7873585,1,1,27,3.375
1764839375.7913609,1,1,32,4.000
1764839375.7953672,1,1,33,4.125
1764839375.799402,1,1,29,3.625
1764839375.8033626,1,1,26,3.250
1764839375.8073475,1,1,27,3.375
1764839375.8113537,1,1,32,4.000
1764839375.815363,1,1,33,4.125
1764839375.8193614,1,1,29,3.625
1764839375.8233502,1,1,26,3.250
1764839375.8273418,1,1,27,3.375
1764839375.8313496,1,1,33,4.125
1764839375.8353446,1,1,34,4.250
1764839375.839343,1,1,30,3.750
1764839375.8433611,1,1,26,3.250
1764839375.8474653,1,1,27,3.375
1764839375.8513649,1,1,33,4.125
1764839375.855402,1,1,33,4.125
1764839375.8593647,1,1,30,3.750
1764839375.8633547,1,1,26,3.250
1764839375.8673406,1,1,27,3.375
1764839375.8713496,1,1,32,4.000
1764839375.87537,1,1,33,4.125
1764839375.8793626,1,1,30,3.750
1764839375.883354,1,1,26,3.250
1764839375.8873446,1,1,27,3.375
1764839375.8913493,1,1,32,4.000
1764839375.8953476,1,1,33,4.125
1764839375.8993433,1,1,30,3.750
1764839375.9033465,1,1,26,3.250
1764839375.9073415,1,1,27,3.375
1764839375.911351,1,1,32,4.000
1764839375.9153602,1,1,33,4.125
1764839375.9193954,1,1,30,3.750
1764839375.9233787,1,1,27,3.375
1764839375.927347,1,1,27,3.375
1764839375.9313521,1,1,32,4.000
1764839375.9354072,1,1,33,4.125
1764839375.9393644,1,1,31,3.875
1764839375.9433517,1,1,26,3.250
1764839375.9473798,1,1,28,3.500
1764839375.951354,1,1,32,4.000
1764839375.9553735,1,1,33,4.125
1764839375.9593604,1,1,31,3.875
1764839375.9633522,1,1,27,3.375
1764839375.967342,1,1,28,3.500
1764839375.9713519,1,1,32,4.000
1764839375.9754114,1,1,33,4.125
1764839375.9793642,1,1,31,3.875
1764839375.9833448,1,1,27,3.375
1764839375.9873407,1,1,27,3.375
1764839375.991358,1,1,32,4.000
1764839375.9953628,1,1,34,4.250
1764839375.99936,1,1,32,4.000
1764839376.0033894,1,1,27,3.375
1764839376.0073748,1,1,27,3.375
1764839376.011354,1,1,31,3.875
1764839376.0153432,1,1,34,4.250
1764839376.0193408,1,1,32,4.000
1764839376.0233617,1,1,27,3.375
1764839376.0273566,1,1,27,3.375
1764839376.031354,1,1,31,3.875
1764839376.035413,1,1,33,4.125
1764839376.0393653,1,1,32,4.000
1764839376.04335,1,1,27,3.375
1764839376.0474544,1,1,27,3.375
1764839376.051352,1,1,31,3.875
1764839376.0553408,1,1,34,4.250
1764839376.059338,1,1,32,4.000
1764839376.0634098,1,1,27,3.375
1764839376.0673838,1,1,30,3.750
1764839376.071364,1,1,34,4.250
1764839376.0753431,1,1,32,4.000
1764839376.0793386,1,1,27,3.375
1764839376.0833588,1,1,28,3.500
1764839376.0873556,1,1,30,3.750
1764839376.0913572,1,1,33,4.125
1764839376.0953412,1,1,32,4.000
1764839376.0993385,1,1,27,3.375
1764839376.103365,1,1,26,3.250
1764839376.1074007,1,1,30,3.750
1764839376.1113672,1,1,33,4.125
1764839376.1153553,1,1,32,4.000
1764839376.1193395,1,1,27,3.375
1764839376.1233568,1,1,26,3.250
1764839376.1273518,1,1,30,3.750
1764839376.1313565,1,1,33,4.125
1764839376.1353393,1,1,33,4.125
1764839376.1393363,1,1,28,3.500
1764839376.1433468,1,1,26,3.250
1764839376.1473398,1,1,30,3.750
1764839376.15143,1,1,33,4.125
1764839376.155392,1,1,33,4.125
1764839376.1593752,1,1,27,3.375
1764839376.1633556,1,1,27,3.375
1764839376.1673498,1,1,29,3.625
1764839376.171349,1,1,34,4.250
1764839376.1753552,1,1,32,4.000
1764839376.1793551,1,1,27,3.375
1764839376.18335,1,1,27,3.375
1764839376.1873424,1,1,30,3.750
1764839376.1913438,1,1,34,4.250
1764839376.1953712,1,1,32,4.000
1764839376.1993566,1,1,28,3.500
1764839376.203347,1,1,27,3.375
1764839376.2073395,1,1,30,3.750
1764839376.2113461,1,1,33,4.125
1764839376.2153535,1,1,33,4.125
1764839376.2193542,1,1,28,3.500
1764839376.223349,1,1,26,3.250
1764839376.2273386,1,1,29,3.625
1764839376.2313483,1,1,33,4.125
1764839376.2353506,1,1,33,4.125
1764839376.23935,1,1,28,3.500
1764839376.2436135,1,1,26,3.250
1764839376.2475786,1,1,29,3.625
1764839376.251475,1,1,33,4.125
1764839376.2553573,1,1,33,4.125
1764839376.259352,1,1,28,3.500
1764839376.2633562,1,1,27,3.375
1764839376.2673516,1,1,29,3.625
1764839376.271355,1,1,33,4.125
1764839376.2754178,1,1,33,4.125
1764839376.2793634,1,1,28,3.500
1764839376.2833529,1,1,26,3.250
1764839376.2873456,1,1,29,3.625
1764839376.291352,1,1,33,4.125
1764839376.2953572,1,1,33,4.125
1764839376.299357,1,1,29,3.625
1764839376.303398,1,1,27,3.375
1764839376.3073483,1,1,28,3.500
1764839376.3113432,1,1,33,4.125
1764839376.3153408,1,1,33,4.125
1764839376.3193417,1,1,29,3.625
1764839376.3233566,1,1,27,3.375
1764839376.327352,1,1,28,3.500
1764839376.3313525,1,1,32,4.000
1764839376.3353379,1,1,33,4.125
1764839376.3393419,1,1,29,3.625
1764839376.34336,1,1,27,3.375
1764839376.3473425,1,1,28,3.500
1764839376.3513775,1,1,33,4.125
1764839376.3553503,1,1,33,4.125
1764839376.3593488,1,1,29,3.625
1764839376.3633528,1,1,27,3.375
1764839376.36735,1,1,28,3.500
1764839376.371355,1,1,33,4.125
1764839376.375357,1,1,33,4.125
1764839376.3793547,1,1,29,3.625
1764839376.3833427,1,1,26,3.250
1764839376.3873377,1,1,28,3.500
1764839376.3913453,1,1,32,4.000
1764839376.3953533,1,1,33,4.125
1764839376.3993497,1,1,30,3.750
1764839376.403339,1,1,27,3.375
1764839376.4073331,1,1,27,3.375
1764839376.4113479,1,1,33,4.125
1764839376.415355,1,1,33,4.125
1764839376.4193525,1,1,30,3.750
1764839376.4233527,1,1,26,3.250
1764839376.427348,1,1,27,3.375
1764839376.4313588,1,1,32,4.000
1764839376.4353511,1,1,33,4.125
1764839376.4393506,1,1,30,3.750
1764839376.4433484,1,1,26,3.250
1764839376.4474237,1,1,27,3.375
1764839376.4514496,1,1,32,4.000
1764839376.4553401,1,1,33,4.125
1764839376.45934,1,1,30,3.750
1764839376.4633546,1,1,26,3.250
1764839376.467351,1,1,27,3.375
1764839376.471352,1,1,32,4.000
1764839376.4753382,1,1,34,4.250
1764839376.4793365,1,1,27,3.375
1764839376.4833562,1,1,27,3.375
1764839376.4873495,1,1,32,4.000
1764839376.4913518,1,1,33,4.125
1764839376.4953353,1,1,31,3.875
1764839376.4993336,1,1,26,3.250
1764839376.5033545,1,1,27,3.375
1764839376.507352,1,1,32,4.000
1764839376.511356,1,1,33,4.125
1764839376.5153475,1,1,31,3.875
1764839376.5193448,1,1,27,3.375
1764839376.523352,1,1,27,3.375
1764839376.52735,1,1,32,4.000
1764839376.5313542,1,1,34,4.250
1764839376.5353491,1,1,31,3.875
1764839376.5393467,1,1,27,3.375
1764839376.5433452,1,1,27,3.375
1764839376.547351,1,1,31,3.875
1764839376.5513792,1,1,33,4.125
1764839376.555336,1,1,32,4.000
1764839376.5593314,1,1,26,3.250
1764839376.5633473,1,1,27,3.375
1764839376.5673459,1,1,31,3.875
1764839376.5713537,1,1,33,4.125
1764839376.5753593,1,1,31,3.875
1764839376.579352,1,1,27,3.375
1764839376.583341,1,1,27,3.375
1764839376.5873318,1,1,31,3.875
1764839376.591338,1,1,33,4.125
1764839376.59535,1,1,31,3.875
1764839376.599348,1,1,27,3.375
1764839376.6033442,1,1,27,3.375
1764839376.607331,1,1,31,3.875
1764839376.6113405,1,1,33,4.125
1764839376.6153479,1,1,32,4.000
1764839376.619347,1,1,27,3.375
1764839376.6233513,1,1,26,3.250
1764839376.6273482,1,1,30,3.750
1764839376.63135,1,1,33,4.125
1764839376.6353455,1,1,32,4.000
1764839376.6393466,1,1,27,3.375
1764839376.6433527,1,1,27,3.375
1764839376.6524282,1,1,34,4.250
1764839376.6553724,1,1,31,3.875
1764839376.6593492,1,1,26,3.250
1764839376.6633482,1,1,26,3.250
1764839376.6673353,1,1,30,3.750
1764839376.6713414,1,1,33,4.125
1764839376.6753492,1,1,32,4.000
1764839376.6793485,1,1,27,3.375
1764839376.6833417,1,1,27,3.375
1764839376.687334,1,1,30,3.750
1764839376.6913433,1,1,33,4.125
1764839376.6953492,1,1,32,4.000
1764839376.6993449,1,1,27,3.375
1764839376.7033484,1,1,26,3.250
1764839376.7073443,1,1,30,3.750
1764839376.7113483,1,1,34,4.250
1764839376.715347,1,1,32,4.000
1764839376.7193472,1,1,27,3.375
1764839376.723351,1,1,27,3.375
1764839376.7273457,1,1,29,3.625
1764839376.7313442,1,1,33,4.125
1764839376.7353528,1,1,33,4.125
1764839376.7393517,1,1,28,3.500
1764839376.7433422,1,1,27,3.375
1764839376.7473323,1,1,29,3.625
1764839376.751337,1,1,33,4.125
1764839376.7553484,1,1,33,4.125
1764839376.7593484,1,1,27,3.375
1764839376.7633436,1,1,26,3.250
1764839376.7673318,1,1,28,3.500
1764839376.7713416,1,1,33,4.125
1764839376.7753456,1,1,33,4.125
1764839376.7793472,1,1,28,3.500
1764839376.7833598,1,1,27,3.375
1764839376.7873468,1,1,29,3.625
1764839376.7913437,1,1,33,4.125
1764839376.7953472,1,1,33,4.125
1764839376.7993472,1,1,28,3.500
1764839376.8033428,1,1,26,3.250
1764839376.8073332,1,1,28,3.500
1764839376.811333,1,1,33,4.125
1764839376.8153305,1,1,33,4.125
1764839376.819329,1,1,28,3.500
1764839376.8233466,1,1,27,3.375
1764839376.827345,1,1,29,3.625
1764839376.83135,1,1,33,4.125
1764839376.835349,1,1,33,4.125
1764839376.8393445,1,1,29,3.625
1764839376.8433394,1,1,26,3.250
1764839376.8473332,1,1,28,3.500
1764839376.85151,1,1,33,4.125
1764839376.8553662,1,1,33,4.125
1764839376.8593504,1,1,28,3.500
1764839376.8633404,1,1,27,3.375
1764839376.8673282,1,1,28,3.500
1764839376.8713417,1,1,33,4.125
1764839376.8753502,1,1,34,4.250
1764839376.8793502,1,1,29,3.625
1764839376.8833413,1,1,27,3.375
1764839376.887331,1,1,28,3.500
1764839376.8913374,1,1,33,4.125
1764839376.8953457,1,1,29,3.625
1764839376.899346,1,1,26,3.250
1764839376.9033473,1,1,28,3.500
1764839376.9073431,1,1,33,4.125
1764839376.9113452,1,1,33,4.125
1764839376.915343,1,1,29,3.625
1764839376.9193444,1,1,26,3.250
1764839376.923348,1,1,28,3.500
1764839376.9273443,1,1,33,4.125
1764839376.931346,1,1,33,4.125
1764839376.9353406,1,1,30,3.750
1764839376.9393418,1,1,27,3.375
1764839376.9433494,1,1,28,3.500
1764839376.9473495,1,1,32,4.000
1764839376.9513757,1,1,34,4.250
1764839376.9553304,1,1,30,3.750
1764839376.9593341,1,1,26,3.250
1764839376.9633508,1,1,27,3.375
1764839376.967344,1,1,32,4.000
1764839376.97134,1,1,33,4.125
1764839376.9753299,1,1,30,3.750
1764839376.9793277,1,1,25,3.125
1764839376.9833455,1,1,27,3.375
1764839376.9873455,1,1,33,4.125
1764839376.9913456,1,1,33,4.125
1764839376.995348,1,1,30,3.750
1764839376.9993446,1,1,26,3.250
1764839377.003349,1,1,27,3.375
1764839377.0073411,1,1,32,4.000
1764839377.011348,1,1,33,4.125
1764839377.0153425,1,1,30,3.750
1764839377.0193446,1,1,26,3.250
1764839377.023344,1,1,27,3.375
1764839377.027341,1,1,32,4.000
1764839377.0313408,1,1,33,4.125
1764839377.0353453,1,1,31,3.875
1764839377.0393443,1,1,26,3.250
1764839377.0433488,1,1,27,3.375
1764839377.0473409,1,1,31,3.875
1764839377.0514185,1,1,33,4.125
1764839377.0553458,1,1,30,3.750
1764839377.059329,1,1,27,3.375
1764839377.0633342,1,1,27,3.375
1764839377.0673275,1,1,32,4.000
1764839377.0713367,1,1,33,4.125
1764839377.0753467,1,1,32,4.000
1764839377.0793464,1,1,26,3.250
1764839377.0833385,1,1,27,3.375
1764839377.0873296,1,1,32,4.000
1764839377.091335,1,1,33,4.125
1764839377.0953417,1,1,32,4.000
1764839377.0993404,1,1,27,3.375
1764839377.103344,1,1,27,3.375
1764839377.107342,1,1,31,3.875
1764839377.111343,1,1,33,4.125
1764839377.1153398,1,1,31,3.875
1764839377.1193402,1,1,27,3.375
1764839377.1233428,1,1,27,3.375
1764839377.1273408,1,1,31,3.875
1764839377.1313455,1,1,34,4.250
1764839377.1353412,1,1,31,3.875
1764839377.1393394,1,1,27,3.375
1764839377.1433413,1,1,27,3.375
1764839377.1473396,1,1,31,3.875
1764839377.1514046,1,1,34,4.250
1764839377.1553562,1,1,32,4.000
1764839377.1593592,1,1,27,3.375
1764839377.1633341,1,1,27,3.375
1764839377.167325,1,1,31,3.875
1764839377.1713347,1,1,34,4.250
1764839377.1753564,1,1,31,3.875
1764839377.1793423,1,1,27,3.375
1764839377.183328,1,1,27,3.375
1764839377.187324,1,1,31,3.875
1764839377.1913345,1,1,34,4.250
1764839377.1953444,1,1,32,4.000
1764839377.199345,1,1,27,3.375
1764839377.2033463,1,1,27,3.375
1764839377.207338,1,1,31,3.875
1764839377.2113414,1,1,34,4.250
1764839377.215334,1,1,32,4.000
1764839377.2193277,1,1,27,3.375
1764839377.223344,1,1,27,3.375
1764839377.2273412,1,1,30,3.750
1764839377.2313452,1,1,34,4.250
1764839377.235339,1,1,32,4.000
1764839377.2393394,1,1,27,3.375
1764839377.243585,1,1,27,3.375
1764839377.2475688,1,1,30,3.750
1764839377.2515242,1,1,34,4.250
1764839377.2553563,1,1,32,4.000
1764839377.259337,1,1,27,3.375
1764839377.263344,1,1,26,3.250
1764839377.2673397,1,1,30,3.750
1764839377.2713416,1,1,34,4.250
1764839377.2753365,1,1,32,4.000
1764839377.2793374,1,1,27,3.375
1764839377.2833397,1,1,27,3.375
1764839377.2873366,1,1,30,3.750
1764839377.2913413,1,1,33,4.125
1764839377.2953455,1,1,32,4.000
1764839377.2993417,1,1,28,3.500
1764839377.3033304,1,1,30,3.750
1764839377.3073251,1,1,34,4.250
1764839377.311335,1,1,33,4.125
1764839377.3153424,1,1,28,3.500
1764839377.3193433,1,1,26,3.250
1764839377.3233411,1,1,29,3.625
1764839377.3273354,1,1,34,4.250
1764839377.3313417,1,1,33,4.125
1764839377.3353415,1,1,28,3.500
1764839377.3393362,1,1,27,3.375
1764839377.34334,1,1,29,3.625
1764839377.3473496,1,1,34,4.250
1764839377.351345,1,1,33,4.125
1764839377.3553436,1,1,28,3.500
1764839377.3593514,1,1,26,3.250
1764839377.3633392,1,1,29,3.625
1764839377.367334,1,1,33,4.125
1764839377.3713336,1,1,33,4.125
1764839377.3753386,1,1,28,3.500
1764839377.379338,1,1,27,3.375
1764839377.383328,1,1,29,3.625
1764839377.3873231,1,1,33,4.125
1764839377.3913355,1,1,33,4.125
1764839377.3953388,1,1,28,3.500
1764839377.3993382,1,1,26,3.250
1764839377.4033449,1,1,28,3.500
1764839377.407337,1,1,33,4.125
1764839377.4113443,1,1,33,4.125
1764839377.4153395,1,1,28,3.500
1764839377.4193347,1,1,26,3.250
1764839377.4233344,1,1,28,3.500
1764839377.427338,1,1,33,4.125
1764839377.431345,1,1,33,4.125
1764839377.43534,1,1,28,3.500
1764839377.4393384,1,1,26,3.250
1764839377.4433389,1,1,28,3.500
1764839377.4473357,1,1,33,4.125
1764839377.4515035,1,1,33,4.125
1764839377.4553423,1,1,29,3.625
1764839377.4593246,1,1,26,3.250
1764839377.4633272,1,1,28,3.500
1764839377.4673216,1,1,32,4.000
1764839377.4713318,1,1,33,4.125
1764839377.4753423,1,1,29,3.625
1764839377.4793403,1,1,26,3.250
1764839377.4833305,1,1,27,3.375
1764839377.4873219,1,1,33,4.125
1764839377.4913304,1,1,33,4.125
1764839377.4953551,1,1,29,3.625
1764839377.4993396,1,1,26,3.250
1764839377.5033383,1,1,28,3.500
1764839377.5073352,1,1,32,4.000
1764839377.511341,1,1,33,4.125
1764839377.5153377,1,1,29,3.625
1764839377.5193396,1,1,26,3.250
1764839377.523341,1,1,27,3.375
1764839377.5273387,1,1,32,4.000
1764839377.5313394,1,1,33,4.125
1764839377.535321,1,1,30,3.750
1764839377.539319,1,1,26,3.250
1764839377.5433419,1,1,28,3.500
1764839377.547337,1,1,32,4.000
1764839377.5513785,1,1,33,4.125
1764839377.5553346,1,1,30,3.750
1764839377.5593216,1,1,26,3.250
1764839377.5633285,1,1,28,3.500
1764839377.5673213,1,1,32,4.000
1764839377.5713282,1,1,33,4.125
1764839377.5753381,1,1,30,3.750
1764839377.5793352,1,1,26,3.250
1764839377.5833244,1,1,27,3.375
1764839377.5873225,1,1,32,4.000
1764839377.5913312,1,1,33,4.125
1764839377.595337,1,1,31,3.875
1764839377.5993352,1,1,27,3.375
1764839377.6033342,1,1,27,3.375
1764839377.6073332,1,1,32,4.000
1764839377.6113362,1,1,33,4.125
1764839377.6153338,1,1,31,3.875
1764839377.6193326,1,1,27,3.375
1764839377.6233323,1,1,27,3.375
1764839377.6273303,1,1,32,4.000
1764839377.631334,1,1,34,4.250
1764839377.6353333,1,1,31,3.875
1764839377.6393363,1,1,26,3.250
1764839377.6433375,1,1,27,3.375
1764839377.6473296,1,1,32,4.000
1764839377.6564798,1,1,27,3.375
1764839377.6593652,1,1,27,3.375
1764839377.663329,1,1,26,3.250
1764839377.6673224,1,1,31,3.875
1764839377.6713283,1,1,34,4.250
1764839377.6753354,1,1,32,4.000
1764839377.6793365,1,1,26,3.250
1764839377.68333,1,1,26,3.250
1764839377.687322,1,1,31,3.875
1764839377.6913283,1,1,33,4.125
1764839377.6953363,1,1,31,3.875
1764839377.6993306,1,1,26,3.250
1764839377.7033327,1,1,27,3.375
1764839377.7073374,1,1,31,3.875
1764839377.7113411,1,1,34,4.250
1764839377.7153337,1,1,32,4.000
1764839377.7193317,1,1,27,3.375
1764839377.723335,1,1,31,3.875
1764839377.7273345,1,1,33,4.125
1764839377.7313342,1,1,32,4.000
1764839377.7353332,1,1,27,3.375
1764839377.73933,1,1,27,3.375
1764839377.7433329,1,1,31,3.875
1764839377.747349,1,1,33,4.125
1764839377.751345,1,1,32,4.000
1764839377.7553422,1,1,27,3.375
1764839377.7593355,1,1,27,3.375
1764839377.7633207,1,1,31,3.875
1764839377.7673168,1,1,34,4.250
1764839377.7713268,1,1,32,4.000
1764839377.7753375,1,1,27,3.375
1764839377.779336,1,1,27,3.375
1764839377.7833273,1,1,31,3.875
1764839377.7873168,1,1,33,4.125
1764839377.7913253,1,1,32,4.000
1764839377.7953382,1,1,27,3.375
1764839377.7993364,1,1,26,3.250
1764839377.8033261,1,1,30,3.750
1764839377.807316,1,1,33,4.125
1764839377.8113208,1,1,32,4.000
1764839377.81533,1,1,28,3.500
1764839377.8193312,1,1,27,3.375
1764839377.823337,1,1,30,3.750
1764839377.827333,1,1,33,4.125
1764839377.8313336,1,1,32,4.000
1764839377.8353283,1,1,27,3.375
1764839377.8393297,1,1,26,3.250
1764839377.8433335,1,1,30,3.750
1764839377.8473306,1,1,33,4.125
1764839377.85134,1,1,33,4.125
1764839377.8554156,1,1,28,3.500
1764839377.8593433,1,1,26,3.250
1764839377.8633351,1,1,30,3.750
1764839377.8673317,1,1,33,4.125
1764839377.871334,1,1,33,4.125
1764839377.8753357,1,1,28,3.500
1764839377.8793316,1,1,26,3.250
1764839377.8833241,1,1,30,3.750
1764839377.8873205,1,1,33,4.125
1764839377.891329,1,1,33,4.125
1764839377.8953335,1,1,28,3.500
1764839377.8993323,1,1,26,3.250
1764839377.9033346,1,1,29,3.625
1764839377.9073305,1,1,33,4.125
1764839377.9113352,1,1,33,4.125
1764839377.9153337,1,1,28,3.500
1764839377.919332,1,1,26,3.250
1764839377.9233317,1,1,29,3.625
1764839377.9273295,1,1,33,4.125
1764839377.9313288,1,1,33,4.125
1764839377.9353313,1,1,28,3.500
1764839377.9393296,1,1,27,3.375
1764839377.9433358,1,1,29,3.625
1764839377.9473288,1,1,33,4.125
1764839377.9513698,1,1,33,4.125
1764839377.9553332,1,1,28,3.500
1764839377.9593337,1,1,27,3.375
1764839377.9633355,1,1,28,3.500
1764839377.9673345,1,1,33,4.125
1764839377.971341,1,1,33,4.125
1764839377.9753168,1,1,29,3.625
1764839377.979315,1,1,27,3.375
1764839377.9833372,1,1,28,3.500
1764839377.9873323,1,1,33,4.125
1764839377.9913268,1,1,33,4.125
1764839377.9953337,1,1,29,3.625
1764839377.9993298,1,1,27,3.375
1764839378.0033338,1,1,28,3.500
1764839378.0073304,1,1,33,4.125
1764839378.011331,1,1,33,4.125
1764839378.0153146,1,1,29,3.625
1764839378.0193138,1,1,27,3.375
1764839378.0233333,1,1,28,3.500
1764839378.0273306,1,1,33,4.125
1764839378.0313356,1,1,33,4.125
1764839378.0353296,1,1,29,3.625
1764839378.039326,1,1,27,3.375
1764839378.0433311,1,1,27,3.375
1764839378.047327,1,1,32,4.000
1764839378.051328,1,1,33,4.125
1764839378.0554032,1,1,30,3.750
1764839378.0593576,1,1,27,3.375
1764839378.0633264,1,1,28,3.500
1764839378.067329,1,1,32,4.000
1764839378.0713272,1,1,34,4.250
1764839378.0753367,1,1,29,3.625
1764839378.0793326,1,1,26,3.250
1764839378.083333,1,1,27,3.375
1764839378.0873134,1,1,33,4.125
1764839378.0913231,1,1,33,4.125
1764839378.0953317,1,1,30,3.750
1764839378.0993319,1,1,26,3.250
1764839378.103335,1,1,27,3.375
1764839378.1073291,1,1,33,4.125
1764839378.111334,1,1,34,4.250
1764839378.1153286,1,1,30,3.750
1764839378.11933,1,1,26,3.250
1764839378.123335,1,1,28,3.500
1764839378.1273305,1,1,32,4.000
1764839378.1313338,1,1,30,3.750
1764839378.1353254,1,1,27,3.375
1764839378.139326,1,1,28,3.500
1764839378.1433322,1,1,32,4.000
1764839378.1473281,1,1,33,4.125
1764839378.151348,1,1,30,3.750
1764839378.1553292,1,1,26,3.250
1764839378.1593285,1,1,27,3.375
1764839378.163332,1,1,32,4.000
1764839378.167333,1,1,33,4.125
1764839378.1713388,1,1,31,3.875
1764839378.175313,1,1,26,3.250
1764839378.1793132,1,1,27,3.375
1764839378.1833305,1,1,32,4.000
1764839378.1873295,1,1,33,4.125
1764839378.1913311,1,1,30,3.750
1764839378.195317,1,1,26,3.250
1764839378.1993127,1,1,27,3.375
1764839378.2033312,1,1,32,4.000
1764839378.2073247,1,1,33,4.125
1764839378.2113276,1,1,30,3.750
1764839378.2153275,1,1,27,3.375
1764839378.2193263,1,1,27,3.375
1764839378.2233267,1,1,31,3.875
1764839378.2273223,1,1,33,4.125
1764839378.2313297,1,1,31,3.875
1764839378.2353144,1,1,26,3.250
1764839378.2393138,1,1,27,3.375
1764839378.2435753,1,1,31,3.875
1764839378.247547,1,1,33,4.125
1764839378.2513494,1,1,31,3.875
1764839378.2553964,1,1,27,3.375
1764839378.2593393,1,1,27,3.375
1764839378.2633328,1,1,32,4.000
1764839378.2673373,1,1,33,4.125
1764839378.2713277,1,1,31,3.875
1764839378.2753267,1,1,27,3.375
1764839378.279327,1,1,27,3.375
1764839378.2833219,1,1,31,3.875
1764839378.287312,1,1,33,4.125
1764839378.291321,1,1,32,4.000
1764839378.29533,1,1,27,3.375
1764839378.299327,1,1,27,3.375
1764839378.3033218,1,1,31,3.875
1764839378.3073363,1,1,33,4.125
1764839378.3113317,1,1,31,3.875
1764839378.315326,1,1,27,3.375
1764839378.3193245,1,1,27,3.375
1764839378.3233244,1,1,31,3.875
1764839378.3273246,1,1,33,4.125
1764839378.331328,1,1,32,4.000
1764839378.3353267,1,1,27,3.375
1764839378.33933,1,1,27,3.375
1764839378.3433275,1,1,30,3.750
1764839378.347328,1,1,33,4.125
1764839378.3513255,1,1,32,4.000
1764839378.3553343,1,1,27,3.375
1764839378.359331,1,1,27,3.375
1764839378.36332,1,1,30,3.750
1764839378.367312,1,1,33,4.125
1764839378.3713198,1,1,32,4.000
1764839378.3753257,1,1,27,3.375
1764839378.379325,1,1,27,3.375
1764839378.3833244,1,1,30,3.750
1764839378.3873212,1,1,33,4.125
1764839378.391327,1,1,32,4.000
1764839378.3953233,1,1,27,3.375
1764839378.3993251,1,1,27,3.375
1764839378.4033284,1,1,30,3.750
1764839378.4073226,1,1,33,4.125
1764839378.4113226,1,1,32,4.000
1764839378.415322,1,1,27,3.375
1764839378.4193227,1,1,27,3.375
1764839378.4233267,1,1,29,3.625
1764839378.4273226,1,1,34,4.250
1764839378.4313252,1,1,32,4.000
1764839378.4353247,1,1,28,3.500
1764839378.439325,1,1,26,3.250
1764839378.443342,1,1,30,3.750
1764839378.4473226,1,1,34,4.250
1764839378.4513295,1,1,32,4.000
1764839378.4554012,1,1,28,3.500
1764839378.4593515,1,1,26,3.250
1764839378.4633255,1,1,29,3.625
1764839378.4673104,1,1,33,4.125
1764839378.4713187,1,1,33,4.125
1764839378.4753304,1,1,27,3.375
1764839378.479328,1,1,27,3.375
1764839378.4833171,1,1,29,3.625
1764839378.4873106,1,1,33,4.125
1764839378.4913232,1,1,33,4.125
1764839378.4953332,1,1,28,3.500
1764839378.4993246,1,1,26,3.250
1764839378.5033274,1,1,28,3.500
1764839378.5073211,1,1,33,4.125
1764839378.5113285,1,1,32,4.000
1764839378.5153267,1,1,29,3.625
1764839378.5193262,1,1,26,3.250
1764839378.5233266,1,1,29,3.625
1764839378.5273228,1,1,33,4.125
1764839378.531329,1,1,33,4.125
1764839378.5353253,1,1,28,3.500
1764839378.5393236,1,1,27,3.375
1764839378.543326,1,1,29,3.625
1764839378.5473213,1,1,33,4.125
1764839378.5513237,1,1,29,3.625
1764839378.5553155,1,1,26,3.250
1764839378.559312,1,1,29,3.625
1764839378.563331,1,1,32,4.000
1764839378.5673237,1,1,33,4.125
1764839378.5713243,1,1,28,3.500
1764839378.575313,1,1,27,3.375
1764839378.5793173,1,1,28,3.500
1764839378.5833168,1,1,33,4.125
1764839378.5873106,1,1,33,4.125
1764839378.5913107,1,1,29,3.625
1764839378.5953245,1,1,26,3.250
1764839378.599324,1,1,29,3.625
1764839378.6033216,1,1,33,4.125
1764839378.6073098,1,1,33,4.125
1764839378.611318,1,1,29,3.625
1764839378.6153216,1,1,26,3.250
1764839378.6193185,1,1,28,3.500
1764839378.6233215,1,1,33,4.125
1764839378.6273243,1,1,33,4.125
1764839378.6313221,1,1,29,3.625
1764839378.6353192,1,1,26,3.250
1764839378.639319,1,1,28,3.500
1764839378.643333,1,1,32,4.000
1764839378.6473222,1,1,33,4.125
1764839378.6513252,1,1,30,3.750
1764839378.66045,1,1,28,3.500
1764839378.6633592,1,1,32,4.000
1764839378.6673229,1,1,33,4.125
1764839378.6713564,1,1,30,3.750
1764839378.6753306,1,1,26,3.250
1764839378.679322,1,1,27,3.375
1764839378.6833253,1,1,32,4.000
1764839378.68732,1,1,33,4.125
1764839378.691325,1,1,30,3.750
1764839378.6953084,1,1,26,3.250
1764839378.6993089,1,1,27,3.375
1764839378.7033265,1,1,32,4.000
1764839378.70732,1,1,33,4.125
1764839378.7113247,1,1,30,3.750
1764839378.7153227,1,1,26,3.250
1764839378.719324,1,1,27,3.375
1764839378.7233236,1,1,32,4.000
1764839378.727323,1,1,33,4.125
1764839378.731328,1,1,30,3.750
1764839378.735321,1,1,26,3.250
1764839378.7393217,1,1,27,3.375
1764839378.743325,1,1,32,4.000
1764839378.7473211,1,1,34,4.250
1764839378.751317,1,1,31,3.875
1764839378.755321,1,1,27,3.375
1764839378.7593575,1,1,27,3.375
1764839378.763326,1,1,32,4.000
1764839378.7673235,1,1,34,4.250
1764839378.7713284,1,1,31,3.875
1764839378.77532,1,1,26,3.250
1764839378.7793195,1,1,27,3.375
1764839378.7833192,1,1,32,4.000
1764839378.7873335,1,1,33,4.125
1764839378.7913225,1,1,31,3.875
1764839378.7953064,1,1,27,3.375
1764839378.7993038,1,1,27,3.375
1764839378.803324,1,1,32,4.000
1764839378.8073182,1,1,33,4.125
1764839378.8113198,1,1,31,3.875
1764839378.8153183,1,1,26,3.250
1764839378.8193212,1,1,27,3.375
1764839378.8233204,1,1,32,4.000
1764839378.8273165,1,1,33,4.125
1764839378.8313212,1,1,31,3.875
1764839378.8353212,1,1,27,3.375
1764839378.8393185,1,1,27,3.375
1764839378.8433206,1,1,31,3.875
1764839378.8473177,1,1,34,4.250
1764839378.851323,1,1,32,4.000
1764839378.855318,1,1,27,3.375
1764839378.8594024,1,1,27,3.375
1764839378.8633254,1,1,31,3.875
1764839378.8673046,1,1,34,4.250
1764839378.8713093,1,1,32,4.000
1764839378.8753216,1,1,27,3.375
1764839378.8793206,1,1,27,3.375
1764839378.8833108,1,1,31,3.875
1764839378.8873057,1,1,33,4.125
1764839378.8913152,1,1,32,4.000
1764839378.895318,1,1,27,3.375
1764839378.8993175,1,1,27,3.375
1764839378.9033215,1,1,30,3.750
1764839378.90732,1,1,33,4.125
1764839378.9113238,1,1,32,4.000
1764839378.915317,1,1,27,3.375
1764839378.9193192,1,1,27,3.375
1764839378.923323,1,1,30,3.750
1764839378.9273202,1,1,33,4.125
1764839378.9313295,1,1,32,4.000
1764839378.9353201,1,1,27,3.375
1764839378.939317,1,1,27,3.375
1764839378.9433198,1,1,30,3.750
1764839378.947318,1,1,33,4.125
1764839378.951317,1,1,33,4.125
1764839378.9553187,1,1,27,3.375
1764839378.9593513,1,1,27,3.375
1764839378.9633203,1,1,30,3.750
1764839378.967318,1,1,32,4.000
1764839378.971325,1,1,27,3.375
1764839378.9753175,1,1,27,3.375
1764839378.9793193,1,1,30,3.750
1764839378.9833202,1,1,33,4.125
1764839378.9873264,1,1,32,4.000
1764839378.9913192,1,1,27,3.375
1764839378.9953215,1,1,27,3.375
1764839378.9993167,1,1,30,3.750
1764839379.0033226,1,1,33,4.125
1764839379.0073175,1,1,33,4.125
1764839379.0113153,1,1,28,3.500
1764839379.015306,1,1,27,3.375
1764839379.019307,1,1,29,3.625
1764839379.023324,1,1,34,4.250
1764839379.0273182,1,1,32,4.000
1764839379.03132,1,1,28,3.500
1764839379.0353167,1,1,27,3.375
1764839379.039318,1,1,29,3.625
1764839379.0433183,1,1,33,4.125
1764839379.0473173,1,1,32,4.000
1764839379.0513155,1,1,28,3.500
1764839379.0553024,1,1,26,3.250
1764839379.0593958,1,1,29,3.625
1764839379.0633283,1,1,33,4.125
1764839379.0673165,1,1,33,4.125
1764839379.0713155,1,1,28,3.500
1764839379.0753148,1,1,27,3.375
1764839379.0793157,1,1,28,3.500
1764839379.083311,1,1,33,4.125
1764839379.0873027,1,1,32,4.000
1764839379.091315,1,1,28,3.500
1764839379.0953217,1,1,26,3.250
1764839379.0993173,1,1,28,3.500
1764839379.1033213,1,1,33,4.125
1764839379.1073174,1,1,32,4.000
1764839379.1113217,1,1,28,3.500
1764839379.1153173,1,1,26,3.250
1764839379.1193173,1,1,28,3.500
1764839379.1233182,1,1,33,4.125
1764839379.1273136,1,1,33,4.125
1764839379.131326,1,1,29,3.625
1764839379.135319,1,1,27,3.375
1764839379.1393185,1,1,27,3.375
1764839379.1433184,1,1,33,4.125
1764839379.147314,1,1,33,4.125
1764839379.1513193,1,1,29,3.625
1764839379.1553125,1,1,26,3.250
1764839379.1593323,1,1,28,3.500
1764839379.1633234,1,1,33,4.125
1764839379.1673133,1,1,33,4.125
1764839379.17132,1,1,29,3.625
1764839379.1753144,1,1,26,3.250
1764839379.1793182,1,1,28,3.500
1764839379.183324,1,1,33,4.125
1764839379.18734,1,1,33,4.125
1764839379.1913185,1,1,30,3.750
1764839379.1952999,1,1,27,3.375
1764839379.1993003,1,1,28,3.500
1764839379.2033207,1,1,33,4.125
1764839379.2073154,1,1,33,4.125
1764839379.2113183,1,1,30,3.750
1764839379.2153025,1,1,27,3.375
1764839379.2193017,1,1,28,3.500
1764839379.2233224,1,1,33,4.125
1764839379.2273145,1,1,33,4.125
1764839379.231318,1,1,30,3.750
1764839379.2353132,1,1,27,3.375
1764839379.2393115,1,1,28,3.500
1764839379.243542,1,1,33,4.125
1764839379.2475488,1,1,33,4.125
1764839379.2513468,1,1,29,3.625
1764839379.255304,1,1,27,3.375
1764839379.2593696,1,1,28,3.500
1764839379.2633336,1,1,32,4.000
1764839379.2673154,1,1,33,4.125
1764839379.2713158,1,1,30,3.750
1764839379.2753134,1,1,26,3.250
1764839379.279313,1,1,27,3.375
1764839379.2833085,1,1,32,4.000
1764839379.287297,1,1,33,4.125
1764839379.2913122,1,1,30,3.750
1764839379.295321,1,1,27,3.375
1764839379.2993205,1,1,28,3.500
1764839379.3033116,1,1,32,4.000
1764839379.3073235,1,1,33,4.125
1764839379.3113136,1,1,30,3.750
1764839379.3153136,1,1,26,3.250
1764839379.319313,1,1,27,3.375
1764839379.323314,1,1,32,4.000
1764839379.3273087,1,1,33,4.125
1764839379.3313117,1,1,31,3.875
1764839379.3353221,1,1,26,3.250
1764839379.33931,1,1,27,3.375
1764839379.343316,1,1,32,4.000
1764839379.3473163,1,1,34,4.250
1764839379.3513167,1,1,31,3.875
1764839379.3553126,1,1,27,3.375
1764839379.3593667,1,1,28,3.500
1764839379.3633187,1,1,32,4.000
1764839379.3673131,1,1,33,4.125
1764839379.3713205,1,1,31,3.875
1764839379.375313,1,1,27,3.375
1764839379.379319,1,1,28,3.500
1764839379.3833282,1,1,32,4.000
1764839379.3873198,1,1,33,4.125
1764839379.3913178,1,1,27,3.375
1764839379.3953001,1,1,27,3.375
1764839379.3992982,1,1,31,3.875
1764839379.4033175,1,1,33,4.125
1764839379.4073164,1,1,31,3.875
1764839379.4113176,1,1,27,3.375
1764839379.4153013,1,1,27,3.375
1764839379.4192998,1,1,31,3.875
1764839379.4233189,1,1,33,4.125
1764839379.4273117,1,1,32,4.000
1764839379.4313145,1,1,27,3.375
1764839379.435313,1,1,26,3.250
1764839379.4393141,1,1,31,3.875
1764839379.4433136,1,1,33,4.125
1764839379.4473085,1,1,32,4.000
1764839379.4513156,1,1,26,3.250
1764839379.4553118,1,1,27,3.375
1764839379.459397,1,1,30,3.750
1764839379.4633183,1,1,34,4.250
1764839379.4672985,1,1,32,4.000
1764839379.4713047,1,1,27,3.375
1764839379.475317,1,1,27,3.375
1764839379.4793127,1,1,30,3.750
1764839379.4833055,1,1,33,4.125
1764839379.487299,1,1,32,4.000
1764839379.4913087,1,1,27,3.375
1764839379.495317,1,1,27,3.375
1764839379.4993155,1,1,30,3.750
1764839379.5033178,1,1,34,4.250
1764839379.5073147,1,1,32,4.000
1764839379.5113153,1,1,28,3.500
1764839379.5153103,1,1,27,3.375
1764839379.5193117,1,1,30,3.750
1764839379.5233123,1,1,33,4.125
1764839379.5273182,1,1,32,4.000
1764839379.5313182,1,1,27,3.375
1764839379.5352945,1,1,26,3.250
1764839379.5392969,1,1,30,3.750
1764839379.5433204,1,1,33,4.125
1764839379.5473127,1,1,32,4.000
1764839379.551307,1,1,27,3.375
1764839379.5552988,1,1,27,3.375
1764839379.559295,1,1,29,3.625
1764839379.5633154,1,1,33,4.125
1764839379.5673091,1,1,33,4.125
1764839379.5713162,1,1,28,3.500
1764839379.5753124,1,1,26,3.250
1764839379.57931,1,1,29,3.625
1764839379.5833058,1,1,34,4.250
1764839379.5873065,1,1,33,4.125
1764839379.5913107,1,1,28,3.500
1764839379.5953107,1,1,26,3.250
1764839379.5993116,1,1,29,3.625
1764839379.6033084,1,1,34,4.250
1764839379.6073084,1,1,33,4.125
1764839379.611311,1,1,28,3.500
1764839379.615297,1,1,26,3.250
1764839379.6192958,1,1,28,3.500
1764839379.6233137,1,1,33,4.125
1764839379.6273084,1,1,32,4.000
1764839379.6313074,1,1,28,3.500
1764839379.63531,1,1,27,3.375
1764839379.639314,1,1,28,3.500
1764839379.643316,1,1,33,4.125
1764839379.6473103,1,1,33,4.125
1764839379.6513114,1,1,29,3.625
1764839379.655309,1,1,26,3.250
1764839379.6644108,1,1,34,4.250
1764839379.6673362,1,1,32,4.000
1764839379.6713116,1,1,28,3.500
1764839379.6752963,1,1,26,3.250
1764839379.679295,1,1,28,3.500
1764839379.6833134,1,1,33,4.125
1764839379.6873114,1,1,33,4.125
1764839379.691314,1,1,28,3.500
1764839379.6952963,1,1,26,3.250
1764839379.699294,1,1,28,3.500
1764839379.7033136,1,1,32,4.000
1764839379.7073069,1,1,33,4.125
1764839379.7113087,1,1,29,3.625
1764839379.7153096,1,1,26,3.250
1764839379.719307,1,1,28,3.500
1764839379.7233112,1,1,33,4.125
1764839379.7273083,1,1,33,4.125
1764839379.7313147,1,1,29,3.625
1764839379.735307,1,1,26,3.250
1764839379.7393084,1,1,28,3.500
1764839379.7433097,1,1,33,4.125
1764839379.7473044,1,1,33,4.125
1764839379.751313,1,1,29,3.625
1764839379.755309,1,1,26,3.250
1764839379.7593226,1,1,28,3.500
1764839379.763349,1,1,32,4.000
1764839379.7673078,1,1,33,4.125
1764839379.7713113,1,1,29,3.625
1764839379.7753208,1,1,26,3.250
1764839379.779308,1,1,28,3.500
1764839379.7833087,1,1,32,4.000
1764839379.7873025,1,1,33,4.125
1764839379.7913096,1,1,30,3.750
1764839379.7953062,1,1,27,3.375
1764839379.7993062,1,1,28,3.500
1764839379.8033125,1,1,32,4.000
1764839379.8073132,1,1,33,4.125
1764839379.8113039,1,1,26,3.250
1764839379.815304,1,1,28,3.500
1764839379.8193011,1,1,32,4.000
1764839379.8233058,1,1,33,4.125
1764839379.8273063,1,1,30,3.750
1764839379.8313093,1,1,26,3.250
1764839379.8352897,1,1,27,3.375
1764839379.83929,1,1,32,4.000
1764839379.8433132,1,1,33,4.125
1764839379.847309,1,1,30,3.750
1764839379.8513107,1,1,27,3.375
1764839379.855309,1,1,28,3.500
1764839379.8593051,1,1,32,4.000
1764839379.8634238,1,1,34,4.250
1764839379.867322,1,1,30,3.750
1764839379.8713088,1,1,27,3.375
1764839379.875292,1,1,27,3.375
1764839379.8792942,1,1,32,4.000
1764839379.8833086,1,1,33,4.125
1764839379.8873048,1,1,31,3.875
1764839379.8913095,1,1,27,3.375
1764839379.8952963,1,1,27,3.375
1764839379.899294,1,1,32,4.000
1764839379.903308,1,1,33,4.125
1764839379.9073024,1,1,31,3.875
1764839379.9113035,1,1,27,3.375
1764839379.9153054,1,1,27,3.375
1764839379.919306,1,1,31,3.875
1764839379.9233105,1,1,33,4.125
1764839379.9273074,1,1,31,3.875
1764839379.9313033,1,1,26,3.250
1764839379.9352937,1,1,27,3.375
1764839379.939292,1,1,31,3.875
1764839379.9433246,1,1,34,4.250
1764839379.9473095,1,1,31,3.875
1764839379.9513066,1,1,26,3.250
1764839379.9552891,1,1,27,3.375
1764839379.9592927,1,1,31,3.875
1764839379.9633493,1,1,34,4.250
1764839379.9673092,1,1,31,3.875
1764839379.9713075,1,1,27,3.375
1764839379.9752915,1,1,26,3.250
1764839379.979289,1,1,31,3.875
1764839379.9833097,1,1,34,4.250
1764839379.9873056,1,1,31,3.875
1764839379.9913104,1,1,26,3.250
1764839379.995306,1,1,27,3.375
1764839379.9993026,1,1,30,3.750
1764839380.0033095,1,1,33,4.125
1764839380.007307,1,1,31,3.875
1764839380.0113091,1,1,27,3.375
1764839380.01531,1,1,27,3.375
1764839380.0193045,1,1,31,3.875
1764839380.023306,1,1,33,4.125
1764839380.0273063,1,1,32,4.000
1764839380.031306,1,1,27,3.375
1764839380.0353053,1,1,27,3.375
1764839380.0393052,1,1,31,3.875
1764839380.0433064,1,1,34,4.250
1764839380.0473015,1,1,32,4.000
1764839380.0513022,1,1,27,3.375
1764839380.0552955,1,1,27,3.375
1764839380.0592926,1,1,31,3.875
1764839380.063431,1,1,34,4.250
1764839380.067316,1,1,32,4.000
1764839380.0713053,1,1,27,3.375
1764839380.0752926,1,1,27,3.375
1764839380.0792904,1,1,31,3.875
1764839380.0833058,1,1,34,4.250
1764839380.0873022,1,1,32,4.000
1764839380.091308,1,1,28,3.500
1764839380.09529,1,1,27,3.375
1764839380.0992932,1,1,30,3.750
1764839380.1033108,1,1,34,4.250
1764839380.1073055,1,1,32,4.000
1764839380.1113052,1,1,28,3.500
1764839380.1153133,1,1,27,3.375
1764839380.119304,1,1,29,3.625
1764839380.1233072,1,1,33,4.125
1764839380.127303,1,1,33,4.125
1764839380.1313002,1,1,27,3.375
1764839380.1353,1,1,27,3.375
1764839380.1393006,1,1,29,3.625
1764839380.1433067,1,1,33,4.125
1764839380.1473045,1,1,33,4.125
1764839380.1513062,1,1,28,3.500
1764839380.1553035,1,1,27,3.375
1764839380.1593015,1,1,30,3.750
1764839380.1633408,1,1,33,4.125
1764839380.1672997,1,1,32,4.000
1764839380.1713073,1,1,28,3.500
1764839380.1753047,1,1,27,3.375
1764839380.1793005,1,1,30,3.750
1764839380.1832976,1,1,34,4.250
1764839380.1872997,1,1,33,4.125
1764839380.1913073,1,1,28,3.500
1764839380.1953015,1,1,26,3.250
1764839380.1993,1,1,29,3.625
1764839380.203303,1,1,33,4.125
1764839380.2073002,1,1,33,4.125
1764839380.2113087,1,1,28,3.500
1764839380.2153153,1,1,27,3.375
1764839380.219304,1,1,29,3.625
1764839380.223289,1,1,34,4.250
1764839380.2272863,1,1,33,4.125
1764839380.2312944,1,1,28,3.500
1764839380.235305,1,1,28,3.500
1764839380.239303,1,1,33,4.125
1764839380.2435262,1,1,34,4.250
1764839380.247524,1,1,28,3.500
1764839380.2513301,1,1,26,3.250
1764839380.2553024,1,1,28,3.500
1764839380.2592995,1,1,33,4.125
1764839380.2633889,1,1,33,4.125
1764839380.2673168,1,1,29,3.625
1764839380.2713022,1,1,26,3.250
1764839380.2752886,1,1,28,3.500
1764839380.279289,1,1,33,4.125
1764839380.2833092,1,1,33,4.125
1764839380.2873049,1,1,29,3.625
1764839380.2913058,1,1,27,3.375
1764839380.2952862,1,1,28,3.500
1764839380.2992847,1,1,33,4.125
1764839380.3033087,1,1,33,4.125
1764839380.3073013,1,1,29,3.625
1764839380.3113003,1,1,26,3.250
1764839380.3152993,1,1,27,3.375
1764839380.3193011,1,1,33,4.125
1764839380.3233008,1,1,33,4.125
1764839380.3272986,1,1,29,3.625
1764839380.3313072,1,1,26,3.250
1764839380.3352945,1,1,28,3.500
1764839380.3392842,1,1,33,4.125
1764839380.343314,1,1,33,4.125
1764839380.3472846,1,1,30,3.750
1764839380.351294,1,1,26,3.250
1764839380.3553045,1,1,27,3.375
1764839380.359308,1,1,33,4.125
1764839380.363334,1,1,33,4.125
1764839380.3672845,1,1,30,3.750
1764839380.3712964,1,1,26,3.250
1764839380.3753061,1,1,28,3.500
1764839380.3793035,1,1,32,4.000
1764839380.3833017,1,1,33,4.125
1764839380.3872967,1,1,30,3.750
1764839380.391298,1,1,26,3.250
1764839380.395301,1,1,27,3.375
1764839380.399302,1,1,33,4.125
1764839380.4033067,1,1,33,4.125
1764839380.4072998,1,1,30,3.750
1764839380.411298,1,1,27,3.375
1764839380.4152858,1,1,27,3.375
1764839380.4192855,1,1,32,4.000
1764839380.4233053,1,1,33,4.125
1764839380.4273007,1,1,30,3.750
1764839380.4312997,1,1,26,3.250
1764839380.4352977,1,1,28,3.500
1764839380.4392984,1,1,32,4.000
1764839380.443306,1,1,33,4.125
1764839380.4473007,1,1,31,3.875
1764839380.4513023,1,1,26,3.250
1764839380.4552982,1,1,27,3.375
1764839380.459298,1,1,32,4.000
1764839380.4634242,1,1,33,4.125
1764839380.4673145,1,1,30,3.750
1764839380.4713037,1,1,26,3.250
1764839380.475288,1,1,27,3.375
1764839380.4792824,1,1,32,4.000
1764839380.483302,1,1,33,4.125
1764839380.487302,1,1,31,3.875
1764839380.4913068,1,1,27,3.375
1764839380.4952993,1,1,27,3.375
1764839380.4992998,1,1,32,4.000
1764839380.5033028,1,1,33,4.125
1764839380.5072966,1,1,31,3.875
1764839380.5113006,1,1,26,3.250
1764839380.515298,1,1,27,3.375
1764839380.5192997,1,1,31,3.875
1764839380.5232992,1,1,33,4.125
1764839380.527296,1,1,32,4.000
1764839380.5313046,1,1,26,3.250
1764839380.5353005,1,1,27,3.375
1764839380.539299,1,1,31,3.875
1764839380.5433018,1,1,34,4.250
1764839380.5472944,1,1,31,3.875
1764839380.5512981,1,1,27,3.375
1764839380.5552857,1,1,27,3.375
1764839380.5592842,1,1,31,3.875
1764839380.5633402,1,1,33,4.125
1764839380.567299,1,1,32,4.000
1764839380.5713003,1,1,27,3.375
1764839380.5752954,1,1,27,3.375
1764839380.5792973,1,1,31,3.875
1764839380.583301,1,1,33,4.125
1764839380.5872967,1,1,32,4.000
1764839380.5912967,1,1,26,3.250
1764839380.595294,1,1,27,3.375
1764839380.599294,1,1,31,3.875
1764839380.6032965,1,1,34,4.250
1764839380.6072962,1,1,32,4.000
1764839380.611301,1,1,27,3.375
1764839380.6152968,1,1,26,3.250
1764839380.61932,1,1,30,3.750
1764839380.6233113,1,1,33,4.125
1764839380.627301,1,1,32,4.000
1764839380.631299,1,1,27,3.375
1764839380.6352847,1,1,27,3.375
1764839380.6392796,1,1,30,3.750
1764839380.6432972,1,1,34,4.250
1764839380.6472976,1,1,33,4.125
1764839380.6512983,1,1,27,3.375
1764839380.655282,1,1,27,3.375
1764839380.6592803,1,1,30,3.750
1764839380.6683784,1,1,27,3.375
1764839380.6713333,1,1,26,3.250
1764839380.675289,1,1,29,3.625
1764839380.6792843,1,1,33,4.125
1764839380.6832986,1,1,32,4.000
1764839380.687295,1,1,26,3.250
1764839380.6913,1,1,27,3.375
1764839380.6952853,1,1,29,3.625
1764839380.6992981,1,1,33,4.125
1764839380.703304,1,1,32,4.000
1764839380.7072966,1,1,27,3.375
1764839380.7112968,1,1,26,3.250
1764839380.715294,1,1,30,3.750
1764839380.7192984,1,1,33,4.125
1764839380.7233,1,1,32,4.000
1764839380.7272935,1,1,27,3.375
1764839380.7313,1,1,27,3.375
1764839380.735295,1,1,29,3.625
1764839380.7393126,1,1,34,4.250
1764839380.7433054,1,1,33,4.125
1764839380.747301,1,1,28,3.500
1764839380.7512965,1,1,27,3.375
1764839380.7552946,1,1,29,3.625
1764839380.7592816,1,1,33,4.125
1764839380.7633393,1,1,32,4.000
1764839380.7672973,1,1,27,3.375
1764839380.7713127,1,1,27,3.375
1764839380.7752795,1,1,29,3.625
1764839380.7792807,1,1,33,4.125
1764839380.7832994,1,1,32,4.000
1764839380.7872984,1,1,28,3.500
1764839380.7913005,1,1,27,3.375
1764839380.7953017,1,1,28,3.500
1764839380.7992973,1,1,33,4.125
1764839380.8032837,1,1,33,4.125
1764839380.80728,1,1,28,3.500
1764839380.8112895,1,1,26,3.250
1764839380.8152947,1,1,28,3.500
1764839380.819296,1,1,33,4.125
1764839380.8232937,1,1,32,4.000
1764839380.8272955,1,1,28,3.500
1764839380.8313017,1,1,26,3.250
1764839380.8352962,1,1,28,3.500
1764839380.839294,1,1,33,4.125
1764839380.8432968,1,1,33,4.125
1764839380.8472934,1,1,28,3.500
1764839380.851294,1,1,26,3.250
1764839380.8552952,1,1,28,3.500
1764839380.8592956,1,1,33,4.125
1764839380.8633118,1,1,33,4.125
1764839380.8673768,1,1,29,3.625
1764839380.87131,1,1,27,3.375
1764839380.8752844,1,1,28,3.500
1764839380.8792846,1,1,33,4.125
1764839380.8833003,1,1,33,4.125
1764839380.8872955,1,1,29,3.625
1764839380.891298,1,1,26,3.250
1764839380.8952801,1,1,28,3.500
1764839380.8992796,1,1,33,4.125
1764839380.9033015,1,1,33,4.125
1764839380.9072964,1,1,30,3.750
1764839380.9112985,1,1,27,3.375
1764839380.9153001,1,1,28,3.500
1764839380.9192963,1,1,33,4.125
1764839380.9232914,1,1,33,4.125
1764839380.9272807,1,1,30,3.750
1764839380.931292,1,1,26,3.250
1764839380.9352922,1,1,27,3.375
1764839380.9392912,1,1,33,4.125
1764839380.9432921,1,1,33,4.125
1764839380.9472973,1,1,30,3.750
1764839380.9512951,1,1,26,3.250
1764839380.955307,1,1,27,3.375
1764839380.9592922,1,1,32,4.000
1764839380.9633338,1,1,33,4.125
1764839380.967292,1,1,30,3.750
1764839380.97129,1,1,27,3.375
1764839380.9752793,1,1,27,3.375
1764839380.9792802,1,1,32,4.000
1764839380.9832962,1,1,33,4.125
1764839380.9872901,1,1,30,3.750
1764839380.9912934,1,1,27,3.375
1764839380.9952953,1,1,28,3.500
1764839380.9992955,1,1,32,4.000
1764839381.0032954,1,1,33,4.125
1764839381.00729,1,1,31,3.875
1764839381.0112927,1,1,26,3.250
1764839381.0152934,1,1,27,3.375
1764839381.019293,1,1,32,4.000
1764839381.0232964,1,1,33,4.125
1764839381.0272908,1,1,31,3.875
1764839381.0313034,1,1,26,3.250
1764839381.0352983,1,1,27,3.375
1764839381.0392942,1,1,32,4.000
1764839381.0432882,1,1,33,4.125
1764839381.0472798,1,1,31,3.875
1764839381.051283,1,1,27,3.375
1764839381.0552895,1,1,28,3.500
1764839381.0592864,1,1,31,3.875
1764839381.0633192,1,1,33,4.125
1764839381.0673628,1,1,31,3.875
1764839381.0713034,1,1,26,3.250
1764839381.075277,1,1,27,3.375
1764839381.0792754,1,1,32,4.000
1764839381.0832975,1,1,32,4.000
1764839381.0872927,1,1,26,3.250
1764839381.0912912,1,1,27,3.375
1764839381.09528,1,1,31,3.875
1764839381.0992754,1,1,34,4.250
1764839381.1032965,1,1,31,3.875
1764839381.1072934,1,1,27,3.375
1764839381.1112957,1,1,27,3.375
1764839381.1152978,1,1,32,4.000
1764839381.119292,1,1,33,4.125
1764839381.1232917,1,1,31,3.875
1764839381.127288,1,1,27,3.375
1764839381.1312997,1,1,27,3.375
1764839381.135293,1,1,31,3.875
1764839381.139299,1,1,34,4.250
1764839381.1432922,1,1,32,4.000
1764839381.147279,1,1,27,3.375
1764839381.1512837,1,1,27,3.375
1764839381.1552978,1,1,31,3.875
1764839381.159293,1,1,33,4.125
1764839381.1633236,1,1,32,4.000
1764839381.1672764,1,1,27,3.375
1764839381.171283,1,1,27,3.375
1764839381.17529,1,1,30,3.750
1764839381.1792922,1,1,33,4.125
1764839381.1832943,1,1,32,4.000
1764839381.1872854,1,1,27,3.375
1764839381.19129,1,1,27,3.375
1764839381.1952875,1,1,30,3.750
1764839381.1992877,1,1,34,4.250
1764839381.2032928,1,1,32,4.000
1764839381.2072878,1,1,27,3.375
1764839381.2112918,1,1,28,3.500
1764839381.2152882,1,1,30,3.750
1764839381.2192855,1,1,33,4.125
1764839381.2232926,1,1,32,4.000
1764839381.2272913,1,1,27,3.375
1764839381.2312927,1,1,26,3.250
1764839381.2352853,1,1,30,3.750
1764839381.2392824,1,1,33,4.125
1764839381.2435322,1,1,32,4.000
1764839381.2475107,1,1,27,3.375
1764839381.2513194,1,1,27,3.375
1764839381.2552931,1,1,30,3.750
1764839381.2592878,1,1,33,4.125
1764839381.2632902,1,1,32,4.000
1764839381.2673628,1,1,27,3.375
1764839381.2713025,1,1,26,3.250
1764839381.2752924,1,1,29,3.625
1764839381.2792866,1,1,33,4.125
1764839381.2832894,1,1,33,4.125
1764839381.287286,1,1,28,3.500
1764839381.2912948,1,1,27,3.375
1764839381.2952747,1,1,30,3.750
1764839381.2992725,1,1,34,4.250
1764839381.3036158,1,1,32,4.000
1764839381.3073516,1,1,28,3.500
1764839381.3121374,1,1,27,3.375
1764839381.3153584,1,1,29,3.625
1764839381.319286,1,1,34,4.250
1764839381.323296,1,1,32,4.000
1764839381.3272867,1,1,28,3.500
1764839381.331289,1,1,26,3.250
1764839381.3352768,1,1,29,3.625
1764839381.3392737,1,1,33,4.125
1764839381.3432992,1,1,32,4.000
1764839381.3472905,1,1,28,3.500
1764839381.3512955,1,1,27,3.375
1764839381.3552935,1,1,29,3.625
1764839381.3592937,1,1,33,4.125
1764839381.363293,1,1,33,4.125
1764839381.3673325,1,1,28,3.500
1764839381.3712912,1,1,27,3.375
1764839381.375287,1,1,29,3.625
1764839381.3792858,1,1,34,4.250
1764839381.3832886,1,1,33,4.125
1764839381.3872879,1,1,29,3.625
1764839381.3912911,1,1,27,3.375
1764839381.3952866,1,1,28,3.500
1764839381.3992887,1,1,33,4.125
1764839381.4032874,1,1,33,4.125
1764839381.4072893,1,1,29,3.625
1764839381.411293,1,1,27,3.375
1764839381.4152894,1,1,28,3.500
1764839381.419286,1,1,33,4.125
1764839381.4232879,1,1,33,4.125
1764839381.4272878,1,1,29,3.625
1764839381.431291,1,1,26,3.250
1764839381.4352725,1,1,28,3.500
1764839381.4392722,1,1,33,4.125
1764839381.4432938,1,1,33,4.125
1764839381.4472878,1,1,29,3.625
1764839381.4512923,1,1,26,3.250
1764839381.4552875,1,1,28,3.500
1764839381.4592893,1,1,33,4.125
1764839381.4632938,1,1,33,4.125
1764839381.4674082,1,1,29,3.625
1764839381.4713075,1,1,26,3.250
1764839381.4752767,1,1,27,3.375
1764839381.4792752,1,1,33,4.125
1764839381.4832914,1,1,33,4.125
1764839381.4873052,1,1,29,3.625
1764839381.491306,1,1,27,3.375
1764839381.4952831,1,1,28,3.500
1764839381.4992783,1,1,33,4.125
1764839381.5032914,1,1,33,4.125
1764839381.5072904,1,1,30,3.750
1764839381.5112882,1,1,26,3.250
1764839381.5152717,1,1,33,4.125
1764839381.519274,1,1,33,4.125
1764839381.523294,1,1,30,3.750
1764839381.527287,1,1,27,3.375
1764839381.5312889,1,1,28,3.500
1764839381.5352848,1,1,32,4.000
1764839381.5392864,1,1,33,4.125
1764839381.5432906,1,1,30,3.750
1764839381.547285,1,1,26,3.250
1764839381.55129,1,1,27,3.375
1764839381.5552714,1,1,32,4.000
1764839381.559269,1,1,33,4.125
1764839381.563286,1,1,30,3.750
1764839381.5673018,1,1,27,3.375
1764839381.5712914,1,1,28,3.500
1764839381.5752885,1,1,32,4.000
1764839381.5792863,1,1,33,4.125
1764839381.5832782,1,1,30,3.750
1764839381.5872703,1,1,26,3.250
1764839381.5912795,1,1,28,3.500
1764839381.5952854,1,1,32,4.000
1764839381.5992856,1,1,33,4.125
1764839381.603283,1,1,31,3.875
1764839381.6072817,1,1,26,3.250
1764839381.6112862,1,1,27,3.375
1764839381.6152706,1,1,32,4.000
1764839381.6192732,1,1,33,4.125
1764839381.6232893,1,1,30,3.750
1764839381.6272857,1,1,26,3.250
1764839381.6312866,1,1,27,3.375
1764839381.6352837,1,1,31,3.875
1764839381.6392841,1,1,33,4.125
1764839381.6432853,1,1,31,3.875
1764839381.647285,1,1,26,3.250
1764839381.6512868,1,1,27,3.375
1764839381.6552832,1,1,32,4.000
1764839381.6592872,1,1,34,4.250
1764839381.6632903,1,1,31,3.875
1764839381.6724572,1,1,27,3.375
1764839381.6753142,1,1,31,3.875
1764839381.679292,1,1,33,4.125
1764839381.6832757,1,1,31,3.875
1764839381.6872723,1,1,27,3.375
1764839381.6912718,1,1,27,3.375
1764839381.695269,1,1,31,3.875
1764839381.6992667,1,1,33,4.125
1764839381.7032745,1,1,31,3.875
1764839381.7072728,1,1,27,3.375
1764839381.7112823,1,1,26,3.250
1764839381.7152858,1,1,31,3.875
1764839381.719282,1,1,34,4.250
1764839381.7232816,1,1,32,4.000
1764839381.7272842,1,1,26,3.250
1764839381.7312803,1,1,26,3.250
1764839381.7352846,1,1,30,3.750
1764839381.7392802,1,1,33,4.125
1764839381.7432854,1,1,31,3.875
1764839381.747279,1,1,27,3.375
1764839381.7512908,1,1,27,3.375
1764839381.7552855,1,1,31,3.875
1764839381.7592845,1,1,34,4.250
1764839381.7632785,1,1,32,4.000
1764839381.7672799,1,1,27,3.375
1764839381.7712955,1,1,26,3.250
1764839381.775284,1,1,30,3.750
1764839381.7792816,1,1,34,4.250
1764839381.7832828,1,1,32,4.000
1764839381.7872806,1,1,27,3.375
1764839381.7912817,1,1,27,3.375
1764839381.7952843,1,1,30,3.750
1764839381.7992847,1,1,33,4.125
1764839381.8032753,1,1,32,4.000
1764839381.8072658,1,1,27,3.375
1764839381.8112707,1,1,26,3.250
1764839381.8152833,1,1,30,3.750
1764839381.8192842,1,1,34,4.250
1764839381.8232844,1,1,32,4.000
1764839381.827279,1,1,27,3.375
1764839381.8312855,1,1,27,3.375
1764839381.8352811,1,1,30,3.750
1764839381.8392813,1,1,34,4.250
1764839381.8432822,1,1,32,4.000
1764839381.84729,1,1,27,3.375
1764839381.8512928,1,1,27,3.375
1764839381.855267,1,1,29,3.625
1764839381.859266,1,1,34,4.250
1764839381.8632846,1,1,33,4.125
1764839381.8672798,1,1,28,3.500
1764839381.8714046,1,1,27,3.375
1764839381.875278,1,1,29,3.625
1764839381.8792677,1,1,34,4.250
1764839381.8832886,1,1,32,4.000
1764839381.8872845,1,1,28,3.500
1764839381.8912838,1,1,26,3.250
1764839381.8952682,1,1,29,3.625
1764839381.899267,1,1,33,4.125
1764839381.903288,1,1,33,4.125
1764839381.9072819,1,1,28,3.500
1764839381.9112883,1,1,27,3.375
1764839381.9152825,1,1,29,3.625
1764839381.919283,1,1,33,4.125
1764839381.923283,1,1,32,4.000
1764839381.927281,1,1,28,3.500
1764839381.9312887,1,1,26,3.250
1764839381.9352887,1,1,29,3.625
1764839381.9392948,1,1,34,4.250
1764839381.9432776,1,1,28,3.500
1764839381.9472656,1,1,27,3.375
1764839381.951275,1,1,29,3.625
