Timestamp,LO_plus,LO_minus,Raw_ADC,Voltage_mV
1764843985.5574794,0,0,0,0.000
1764843985.5592995,0,0,2,0.250
1764843985.5630145,0,0,15,1.875
1764843985.5670013,0,0,22,2.750
1764843985.5710316,0,0,18,2.250
1764843985.5750132,0,0,8,1.000
1764843985.579004,0,0,10,1.250
1764843985.5830061,0,0,23,2.875
1764843985.5870025,0,0,29,3.625
1764843985.5910003,0,0,26,3.250
1764843985.595004,0,0,14,1.750
1764843985.5990217,0,0,15,1.875
1764843985.6030428,0,0,27,3.375
1764843985.6070051,0,0,33,4.125
1764843985.611001,0,0,29,3.625
1764843985.6150138,0,0,18,2.250
1764843985.6190078,0,0,18,2.250
1764843985.6230085,0,0,28,3.500
1764843985.6270173,0,0,35,4.375
1764843985.6310425,0,0,31,3.875
1764843985.6350098,0,0,19,2.375
1764843985.6390007,0,0,20,2.500
1764843985.6430094,0,0,29,3.625
1764843985.647027,0,0,36,4.500
1764843985.6510305,0,0,33,4.125
1764843985.6550102,0,0,20,2.500
1764843985.6590009,0,0,20,2.500
1764843985.6630108,0,0,29,3.625
1764843985.667008,0,0,37,4.625
1764843985.6710076,0,0,34,4.250
1764843985.675009,0,0,21,2.625
1764843985.678999,0,0,20,2.500
1764843985.683009,0,0,29,3.625
1764843985.6870065,0,0,37,4.625
1764843985.6910064,0,0,34,4.250
1764843985.695039,0,0,21,2.625
1764843985.6990016,0,0,21,2.625
1764843985.7030077,0,0,29,3.625
1764843985.707002,0,0,38,4.750
1764843985.7109983,0,0,35,4.375
1764843985.7150078,0,0,22,2.750
1764843985.719029,0,0,21,2.625
1764843985.7230234,0,0,29,3.625
1764843985.726999,0,0,38,4.750
1764843985.7310157,0,0,36,4.500
1764843985.7350152,0,0,22,2.750
1764843985.7390065,0,0,21,2.625
1764843985.743007,0,0,28,3.500
1764843985.7469983,0,0,38,4.750
1764843985.7510107,0,0,36,4.500
1764843985.7550936,0,0,24,3.000
1764843985.7590141,0,0,21,2.625
1764843985.7630062,0,0,28,3.500
1764843985.7670057,0,0,38,4.750
1764843985.771011,0,0,36,4.500
1764843985.7750044,0,0,24,3.000
1764843985.7790508,0,0,21,2.625
1764843985.7830193,0,0,27,3.375
1764843985.7869964,0,0,38,4.750
1764843985.790996,0,0,36,4.500
1764843985.7950108,0,0,25,3.125
1764843985.7990067,0,0,21,2.625
1764843985.803053,0,0,26,3.250
1764843985.807005,0,0,37,4.625
1764843985.8109965,0,0,37,4.625
1764843985.8150096,0,0,25,3.125
1764843985.8190057,0,0,21,2.625
1764843985.8230076,0,0,26,3.250
1764843985.8270473,0,0,38,4.750
1764843985.8310134,0,0,37,4.625
1764843985.8350034,0,0,25,3.125
1764843985.8389962,0,0,21,2.625
1764843985.8430033,0,0,26,3.250
1764843985.8470056,0,0,38,4.750
1764843985.8510482,0,0,37,4.625
1764843985.8550112,0,0,26,3.250
1764843985.8589962,0,0,21,2.625
1764843985.8630056,0,0,25,3.125
1764843985.8670034,0,0,37,4.625
1764843985.8710058,0,0,37,4.625
1764843985.8750427,0,0,26,3.250
1764843985.8790119,0,0,24,3.000
1764843985.8830068,0,0,37,4.625
1764843985.8869956,0,0,36,4.500
1764843985.8909938,0,0,28,3.500
1764843985.8950074,0,0,20,2.500
1764843985.8990054,0,0,25,3.125
1764843985.9030058,0,0,37,4.625
1764843985.9070299,0,0,37,4.625
1764843985.9110134,0,0,27,3.375
1764843985.9149973,0,0,21,2.625
1764843985.9189963,0,0,24,3.000
1764843985.9230077,0,0,36,4.500
1764843985.9270048,0,0,38,4.750
1764843985.931002,0,0,28,3.500
1764843985.934999,0,0,20,2.500
1764843985.9389944,0,0,23,2.875
1764843985.9430087,0,0,37,4.625
1764843985.9470057,0,0,37,4.625
1764843985.9510024,0,0,28,3.500
1764843985.9550662,0,0,20,2.500
1764843985.9590144,0,0,23,2.875
1764843985.9630055,0,0,36,4.500
1764843985.9669955,0,0,37,4.625
1764843985.9709961,0,0,29,3.625
1764843985.9750094,0,0,20,2.500
1764843985.9790044,0,0,23,2.875
1764843985.9830031,0,0,35,4.375
1764843985.9870596,0,0,37,4.625
1764843985.9910364,0,0,30,3.750
1764843985.9950273,0,0,20,2.500
1764843985.9990065,0,0,23,2.875
1764843986.0030017,0,0,35,4.375
1764843986.0070007,0,0,37,4.625
1764843986.0110025,0,0,31,3.875
1764843986.0150054,0,0,21,2.625
1764843986.019006,0,0,23,2.875
1764843986.0230045,0,0,35,4.375
1764843986.0269947,0,0,38,4.750
1764843986.0310144,0,0,31,3.875
1764843986.0350113,0,0,21,2.625
1764843986.0390034,0,0,22,2.750
1764843986.0430093,0,0,35,4.375
1764843986.047005,0,0,38,4.750
1764843986.0510402,0,0,32,4.000
1764843986.0550184,0,0,20,2.500
1764843986.0589957,0,0,22,2.750
1764843986.0630023,0,0,33,4.125
1764843986.0670052,0,0,38,4.750
1764843986.0710042,0,0,33,4.125
1764843986.0751193,0,0,21,2.625
1764843986.0790975,0,0,22,2.750
1764843986.0831115,0,0,34,4.250
1764843986.0871124,0,0,38,4.750
1764843986.091112,0,0,33,4.125
1764843986.095115,0,0,21,2.625
1764843986.0991123,0,0,22,2.750
1764843986.1031551,0,0,33,4.125
1764843986.1071072,0,0,38,4.750
1764843986.1110983,0,0,33,4.125
1764843986.1151187,0,0,21,2.625
1764843986.1191702,0,0,21,2.625
1764843986.123131,0,0,32,4.000
1764843986.1270947,0,0,38,4.750
1764843986.1310942,0,0,34,4.250
1764843986.1351185,0,0,21,2.625
1764843986.139113,0,0,21,2.625
1764843986.1431143,0,0,31,3.875
1764843986.1470966,0,0,38,4.750
1764843986.1510954,0,0,35,4.375
1764843986.15519,0,0,21,2.625
1764843986.159167,0,0,22,2.750
1764843986.1631265,0,0,30,3.750
1764843986.167129,0,0,38,4.750
1764843986.1711,0,0,35,4.375
1764843986.1751344,0,0,21,2.625
1764843986.179093,0,0,21,2.625
1764843986.1831124,0,0,30,3.750
1764843986.1871557,0,0,38,4.750
1764843986.1911154,0,0,35,4.375
1764843986.1951118,0,0,22,2.750
1764843986.199095,0,0,22,2.750
1764843986.2031467,0,0,30,3.750
1764843986.2074735,0,0,35,4.375
1764843986.2111719,0,0,35,4.375
1764843986.2151837,0,0,22,2.750
1764843986.2191205,0,0,30,3.750
1764843986.2231102,0,0,38,4.750
1764843986.227104,0,0,36,4.500
1764843986.2311065,0,0,23,2.875
1764843986.2351117,0,0,21,2.625
1764843986.239105,0,0,29,3.625
1764843986.2431068,0,0,38,4.750
1764843986.2471054,0,0,36,4.500
1764843986.2511547,0,0,23,2.875
1764843986.2551286,0,0,21,2.625
1764843986.2590973,0,0,28,3.500
1764843986.2633088,0,0,38,4.750
1764843986.2670994,0,0,37,4.625
1764843986.2711043,0,0,24,3.000
1764843986.275137,0,0,21,2.625
1764843986.2790956,0,0,27,3.375
1764843986.2831519,0,0,38,4.750
1764843986.2871027,0,0,36,4.500
1764843986.2910917,0,0,24,3.000
1764843986.2950964,0,0,21,2.625
1764843986.2990901,0,0,26,3.250
1764843986.3030972,0,0,38,4.750
1764843986.307093,0,0,36,4.500
1764843986.311159,0,0,24,3.000
1764843986.3151467,0,0,21,2.625
1764843986.3191078,0,0,27,3.375
1764843986.3231084,0,0,38,4.750
1764843986.3271115,0,0,37,4.625
1764843986.33111,0,0,25,3.125
1764843986.335101,0,0,21,2.625
1764843986.339091,0,0,26,3.250
1764843986.3431087,0,0,37,4.625
1764843986.3471124,0,0,37,4.625
1764843986.3511462,0,0,25,3.125
1764843986.3551927,0,0,21,2.625
1764843986.3591213,0,0,25,3.125
1764843986.3631232,0,0,37,4.625
1764843986.3670933,0,0,36,4.500
1764843986.3710928,0,0,26,3.250
1764843986.3751733,0,0,21,2.625
1764843986.3791187,0,0,25,3.125
1764843986.3831122,0,0,37,4.625
1764843986.3870919,0,0,37,4.625
1764843986.3910923,0,0,27,3.375
1764843986.3951137,0,0,21,2.625
1764843986.3991113,0,0,24,3.000
1764843986.4031093,0,0,37,4.625
1764843986.4071362,0,0,37,4.625
1764843986.41113,0,0,28,3.500
1764843986.4150982,0,0,20,2.500
1764843986.419091,0,0,24,3.000
1764843986.4231079,0,0,36,4.500
1764843986.4271095,0,0,37,4.625
1764843986.4311101,0,0,28,3.500
1764843986.435104,0,0,20,2.500
1764843986.4390898,0,0,24,3.000
1764843986.4431005,0,0,37,4.625
1764843986.4470942,0,0,37,4.625
1764843986.4510965,0,0,29,3.625
1764843986.4551618,0,0,20,2.500
1764843986.459115,0,0,23,2.875
1764843986.4631069,0,0,36,4.500
1764843986.4670908,0,0,37,4.625
1764843986.4710932,0,0,30,3.750
1764843986.4751515,0,0,21,2.625
1764843986.4791086,0,0,23,2.875
1764843986.483107,0,0,36,4.500
1764843986.487149,0,0,37,4.625
1764843986.4911125,0,0,30,3.750
1764843986.4951155,0,0,20,2.500
1764843986.4990919,0,0,22,2.750
1764843986.503106,0,0,35,4.375
1764843986.5071065,0,0,38,4.750
1764843986.5111063,0,0,31,3.875
1764843986.5151505,0,0,20,2.500
1764843986.5191226,0,0,23,2.875
1764843986.5231009,0,0,35,4.375
1764843986.5270927,0,0,38,4.750
1764843986.531091,0,0,31,3.875
1764843986.5351114,0,0,21,2.625
1764843986.5391045,0,0,22,2.750
1764843986.5431025,0,0,34,4.250
1764843986.5471528,0,0,38,4.750
1764843986.5511134,0,0,31,3.875
1764843986.5602105,0,0,34,4.250
1764843986.5631208,0,0,34,4.250
1764843986.5671332,0,0,37,4.625
1764843986.5711093,0,0,20,2.500
1764843986.5751355,0,0,21,2.625
1764843986.5790915,0,0,33,4.125
1764843986.583097,0,0,38,4.750
1764843986.5870883,0,0,33,4.125
1764843986.591091,0,0,21,2.625
1764843986.5950963,0,0,22,2.750
1764843986.5990906,0,0,33,4.125
1764843986.6031003,0,0,38,4.750
1764843986.6071208,0,0,33,4.125
1764843986.6111293,0,0,21,2.625
1764843986.615104,0,0,22,2.750
1764843986.6190927,0,0,32,4.000
1764843986.6231086,0,0,38,4.750
1764843986.6271079,0,0,34,4.250
1764843986.6311045,0,0,21,2.625
1764843986.6351016,0,0,22,2.750
1764843986.639092,0,0,31,3.875
1764843986.6431053,0,0,38,4.750
1764843986.6471033,0,0,34,4.250
1764843986.6511014,0,0,22,2.750
1764843986.6551025,0,0,22,2.750
1764843986.659136,0,0,31,3.875
1764843986.6631289,0,0,38,4.750
1764843986.6670938,0,0,34,4.250
1764843986.6710901,0,0,22,2.750
1764843986.675148,0,0,22,2.750
1764843986.6791055,0,0,30,3.750
1764843986.6831017,0,0,38,4.750
1764843986.6870902,0,0,35,4.375
1764843986.6910899,0,0,22,2.750
1764843986.6950974,0,0,21,2.625
1764843986.6990907,0,0,29,3.625
1764843986.7031064,0,0,38,4.750
1764843986.7071033,0,0,35,4.375
1764843986.7111073,0,0,23,2.875
1764843986.7151182,0,0,21,2.625
1764843986.7191105,0,0,29,3.625
1764843986.723106,0,0,38,4.750
1764843986.7270882,0,0,35,4.375
1764843986.7311857,0,0,23,2.875
1764843986.7351162,0,0,21,2.625
1764843986.7390912,0,0,28,3.500
1764843986.7430983,0,0,38,4.750
1764843986.74709,0,0,36,4.500
1764843986.7510872,0,0,23,2.875
1764843986.7551148,0,0,21,2.625
1764843986.759174,0,0,28,3.500
1764843986.7631195,0,0,38,4.750
1764843986.7671025,0,0,36,4.500
1764843986.771105,0,0,23,2.875
1764843986.7751434,0,0,21,2.625
1764843986.7790997,0,0,28,3.500
1764843986.7831004,0,0,38,4.750
1764843986.787091,0,0,36,4.500
1764843986.7910917,0,0,24,3.000
1764843986.7951124,0,0,22,2.750
1764843986.7991028,0,0,27,3.375
1764843986.8031,0,0,38,4.750
1764843986.8070903,0,0,37,4.625
1764843986.811088,0,0,24,3.000
1764843986.815105,0,0,21,2.625
1764843986.8191044,0,0,27,3.375
1764843986.823116,0,0,37,4.625
1764843986.8271072,0,0,37,4.625
1764843986.831105,0,0,26,3.250
1764843986.8351018,0,0,21,2.625
1764843986.839089,0,0,26,3.250
1764843986.8431015,0,0,38,4.750
1764843986.8471029,0,0,37,4.625
1764843986.8511007,0,0,26,3.250
1764843986.8550925,0,0,21,2.625
1764843986.8590875,0,0,25,3.125
1764843986.8631058,0,0,37,4.625
1764843986.867105,0,0,37,4.625
1764843986.8711002,0,0,26,3.250
1764843986.8752117,0,0,21,2.625
1764843986.8791518,0,0,25,3.125
1764843986.8831549,0,0,37,4.625
1764843986.8871493,0,0,37,4.625
1764843986.891147,0,0,27,3.375
1764843986.8951433,0,0,21,2.625
1764843986.8991442,0,0,24,3.000
1764843986.9031544,0,0,37,4.625
1764843986.907147,0,0,38,4.750
1764843986.9111462,0,0,28,3.500
1764843986.9151552,0,0,21,2.625
1764843986.9191465,0,0,36,4.500
1764843986.923151,0,0,37,4.625
1764843986.9271464,0,0,28,3.500
1764843986.9311447,0,0,20,2.500
1764843986.935148,0,0,24,3.000
1764843986.939146,0,0,36,4.500
1764843986.9431508,0,0,38,4.750
1764843986.947145,0,0,28,3.500
1764843986.9511476,0,0,21,2.625
1764843986.9551384,0,0,23,2.875
1764843986.9592006,0,0,36,4.500
1764843986.9631507,0,0,37,4.625
1764843986.96713,0,0,29,3.625
1764843986.9711263,0,0,20,2.500
1764843986.9752383,0,0,23,2.875
1764843986.9791074,0,0,36,4.500
1764843986.9831026,0,0,37,4.625
1764843986.987087,0,0,30,3.750
1764843986.991085,0,0,21,2.625
1764843986.995106,0,0,23,2.875
1764843986.9991043,0,0,35,4.375
1764843987.0031052,0,0,38,4.750
1764843987.0071032,0,0,30,3.750
1764843987.011102,0,0,21,2.625
1764843987.0150993,0,0,22,2.750
1764843987.0191,0,0,35,4.375
1764843987.0231066,0,0,37,4.625
1764843987.0271022,0,0,31,3.875
1764843987.0311003,0,0,21,2.625
1764843987.0351067,0,0,22,2.750
1764843987.0391004,0,0,34,4.250
1764843987.043105,0,0,37,4.625
1764843987.0471058,0,0,32,4.000
1764843987.0511053,0,0,20,2.500
1764843987.0550961,0,0,22,2.750
1764843987.0590863,0,0,33,4.125
1764843987.0630996,0,0,37,4.625
1764843987.0670998,0,0,33,4.125
1764843987.0711002,0,0,21,2.625
1764843987.075144,0,0,21,2.625
1764843987.0790892,0,0,33,4.125
1764843987.0831013,0,0,38,4.750
1764843987.0871024,0,0,32,4.000
1764843987.0911014,0,0,21,2.625
1764843987.0951076,0,0,22,2.750
1764843987.0991025,0,0,33,4.125
1764843987.10311,0,0,38,4.750
1764843987.1070974,0,0,33,4.125
1764843987.1111004,0,0,21,2.625
1764843987.1151032,0,0,21,2.625
1764843987.119103,0,0,32,4.000
1764843987.1231086,0,0,38,4.750
1764843987.127101,0,0,34,4.250
1764843987.131098,0,0,22,2.750
1764843987.1351025,0,0,22,2.750
1764843987.1390998,0,0,32,4.000
1764843987.143105,0,0,38,4.750
1764843987.1470995,0,0,34,4.250
1764843987.1511006,0,0,21,2.625
1764843987.1551042,0,0,21,2.625
1764843987.1591673,0,0,31,3.875
1764843987.1631134,0,0,38,4.750
1764843987.1670876,0,0,34,4.250
1764843987.1710854,0,0,22,2.750
1764843987.1751409,0,0,22,2.750
1764843987.179099,0,0,30,3.750
1764843987.1830962,0,0,38,4.750
1764843987.1870837,0,0,35,4.375
1764843987.1910856,0,0,22,2.750
1764843987.1951087,0,0,21,2.625
1764843987.1991003,0,0,30,3.750
1764843987.2031474,0,0,38,4.750
1764843987.2074356,0,0,35,4.375
1764843987.211155,0,0,23,2.875
1764843987.215104,0,0,21,2.625
1764843987.2190974,0,0,30,3.750
1764843987.2231007,0,0,38,4.750
1764843987.227093,0,0,36,4.500
1764843987.2310925,0,0,22,2.750
1764843987.235096,0,0,21,2.625
1764843987.2390952,0,0,28,3.500
1764843987.2430997,0,0,38,4.750
1764843987.2470975,0,0,36,4.500
1764843987.2510967,0,0,23,2.875
1764843987.255111,0,0,21,2.625
1764843987.2591002,0,0,28,3.500
1764843987.2632272,0,0,36,4.500
1764843987.267098,0,0,36,4.500
1764843987.2711015,0,0,23,2.875
1764843987.2751403,0,0,27,3.375
1764843987.279095,0,0,38,4.750
1764843987.2830937,0,0,37,4.625
1764843987.2870932,0,0,24,3.000
1764843987.2910957,0,0,21,2.625
1764843987.2951012,0,0,27,3.375
1764843987.2991064,0,0,38,4.750
1764843987.3030958,0,0,36,4.500
1764843987.3070943,0,0,24,3.000
1764843987.3110929,0,0,21,2.625
1764843987.315102,0,0,27,3.375
1764843987.3190963,0,0,37,4.625
1764843987.3230968,0,0,37,4.625
1764843987.3270955,0,0,25,3.125
1764843987.3310974,0,0,21,2.625
1764843987.3351,0,0,26,3.250
1764843987.339099,0,0,37,4.625
1764843987.3431048,0,0,37,4.625
1764843987.3470986,0,0,25,3.125
1764843987.3510969,0,0,21,2.625
1764843987.3551037,0,0,26,3.250
1764843987.3591714,0,0,38,4.750
1764843987.3631098,0,0,36,4.500
1764843987.3670852,0,0,26,3.250
1764843987.3710833,0,0,21,2.625
1764843987.3751357,0,0,25,3.125
1764843987.3790958,0,0,37,4.625
1764843987.3830976,0,0,37,4.625
1764843987.3870852,0,0,27,3.375
1764843987.3910835,0,0,21,2.625
1764843987.395101,0,0,25,3.125
1764843987.399095,0,0,37,4.625
1764843987.4031024,0,0,37,4.625
1764843987.4070966,0,0,27,3.375
1764843987.4110956,0,0,21,2.625
1764843987.4150972,0,0,25,3.125
1764843987.4190965,0,0,37,4.625
1764843987.4230993,0,0,37,4.625
1764843987.4270935,0,0,28,3.500
1764843987.4310958,0,0,20,2.500
1764843987.4351006,0,0,24,3.000
1764843987.4390974,0,0,37,4.625
1764843987.4430943,0,0,37,4.625
1764843987.4470928,0,0,28,3.500
1764843987.4511049,0,0,21,2.625
1764843987.4550993,0,0,24,3.000
1764843987.4590952,0,0,36,4.500
1764843987.4630928,0,0,37,4.625
1764843987.4670827,0,0,29,3.625
1764843987.4710786,0,0,21,2.625
1764843987.475205,0,0,23,2.875
1764843987.4791417,0,0,36,4.500
1764843987.4831433,0,0,37,4.625
1764843987.48714,0,0,30,3.750
1764843987.491137,0,0,21,2.625
1764843987.4951303,0,0,23,2.875
1764843987.4991212,0,0,36,4.500
1764843987.5031433,0,0,37,4.625
1764843987.507143,0,0,31,3.875
1764843987.5111406,0,0,20,2.500
1764843987.51514,0,0,23,2.875
1764843987.519137,0,0,35,4.375
1764843987.523145,0,0,37,4.625
1764843987.5271404,0,0,31,3.875
1764843987.5311399,0,0,21,2.625
1764843987.5351393,0,0,23,2.875
1764843987.539138,0,0,34,4.250
1764843987.543147,0,0,38,4.750
1764843987.547136,0,0,32,4.000
1764843987.5511396,0,0,21,2.625
1764843987.5551314,0,0,22,2.750
1764843987.5650942,0,0,32,4.000
1764843987.5671644,0,0,32,4.000
1764843987.5711436,0,0,19,2.375
1764843987.5752285,0,0,22,2.750
1764843987.579086,0,0,33,4.125
1764843987.5830991,0,0,38,4.750
1764843987.5870955,0,0,32,4.000
1764843987.5910926,0,0,21,2.625
1764843987.595087,0,0,22,2.750
1764843987.5990813,0,0,32,4.000
1764843987.603095,0,0,37,4.625
1764843987.6070957,0,0,33,4.125
1764843987.6110957,0,0,20,2.500
1764843987.6150973,0,0,22,2.750
1764843987.6190937,0,0,32,4.000
1764843987.6231,0,0,38,4.750
1764843987.627094,0,0,34,4.250
1764843987.6310945,0,0,21,2.625
1764843987.6350965,0,0,32,4.000
1764843987.6390924,0,0,37,4.625
1764843987.643098,0,0,34,4.250
1764843987.647093,0,0,22,2.750
1764843987.6510954,0,0,22,2.750
1764843987.655098,0,0,31,3.875
1764843987.659091,0,0,38,4.750
1764843987.6631227,0,0,34,4.250
1764843987.6670961,0,0,22,2.750
1764843987.671095,0,0,22,2.750
1764843987.6751215,0,0,31,3.875
1764843987.679081,0,0,38,4.750
1764843987.6830897,0,0,35,4.375
1764843987.6870906,0,0,21,2.625
1764843987.6910954,0,0,22,2.750
1764843987.6950862,0,0,30,3.750
1764843987.6990778,0,0,38,4.750
1764843987.7030976,0,0,35,4.375
1764843987.7070935,0,0,23,2.875
1764843987.7110915,0,0,22,2.750
1764843987.715097,0,0,28,3.500
1764843987.7190938,0,0,38,4.750
1764843987.7230985,0,0,36,4.500
1764843987.7270935,0,0,22,2.750
1764843987.7310932,0,0,21,2.625
1764843987.7350955,0,0,28,3.500
1764843987.7390916,0,0,38,4.750
1764843987.7430983,0,0,35,4.375
1764843987.7470953,0,0,23,2.875
1764843987.751093,0,0,21,2.625
1764843987.7550926,0,0,28,3.500
1764843987.7590904,0,0,38,4.750
1764843987.7631702,0,0,36,4.500
1764843987.7671056,0,0,23,2.875
1764843987.7711,0,0,21,2.625
1764843987.775126,0,0,27,3.375
1764843987.7790787,0,0,37,4.625
1764843987.7831025,0,0,36,4.500
1764843987.787096,0,0,23,2.875
1764843987.791094,0,0,21,2.625
1764843987.7950883,0,0,27,3.375
1764843987.7990751,0,0,38,4.750
1764843987.8030913,0,0,37,4.625
1764843987.8070889,0,0,24,3.000
1764843987.8110921,0,0,21,2.625
1764843987.8150933,0,0,26,3.250
1764843987.8190916,0,0,38,4.750
1764843987.8230937,0,0,37,4.625
1764843987.8270912,0,0,25,3.125
1764843987.8310893,0,0,21,2.625
1764843987.8350961,0,0,26,3.250
1764843987.839094,0,0,37,4.625
1764843987.8430984,0,0,37,4.625
1764843987.8470893,0,0,25,3.125
1764843987.8510873,0,0,21,2.625
1764843987.855092,0,0,26,3.250
1764843987.8590915,0,0,38,4.750
1764843987.8630955,0,0,37,4.625
1764843987.8670907,0,0,26,3.250
1764843987.8710916,0,0,21,2.625
1764843987.8751092,0,0,25,3.125
1764843987.8790917,0,0,37,4.625
1764843987.8830893,0,0,37,4.625
1764843987.8870745,0,0,27,3.375
1764843987.891076,0,0,21,2.625
1764843987.895092,0,0,25,3.125
1764843987.8990884,0,0,37,4.625
1764843987.9030871,0,0,37,4.625
1764843987.907077,0,0,27,3.375
1764843987.9110744,0,0,20,2.500
1764843987.9150999,0,0,24,3.000
1764843987.9190915,0,0,37,4.625
1764843987.9230938,0,0,37,4.625
1764843987.9270885,0,0,28,3.500
1764843987.931092,0,0,21,2.625
1764843987.935084,0,0,24,3.000
1764843987.9390743,0,0,37,4.625
1764843987.9430878,0,0,37,4.625
1764843987.9470904,0,0,28,3.500
1764843987.951089,0,0,21,2.625
1764843987.955099,0,0,23,2.875
1764843987.9590921,0,0,37,4.625
1764843987.9631667,0,0,37,4.625
1764843987.9670997,0,0,29,3.625
1764843987.9710903,0,0,20,2.500
1764843987.9751227,0,0,23,2.875
1764843987.9790766,0,0,36,4.500
1764843987.9830954,0,0,38,4.750
1764843987.9870927,0,0,30,3.750
1764843987.991093,0,0,23,2.875
1764843987.995085,0,0,35,4.375
1764843987.9990733,0,0,38,4.750
1764843988.0030866,0,0,30,3.750
1764843988.0070894,0,0,20,2.500
1764843988.011091,0,0,22,2.750
1764843988.0150986,0,0,35,4.375
1764843988.019088,0,0,38,4.750
1764843988.0230916,0,0,31,3.875
1764843988.0270927,0,0,21,2.625
1764843988.0310953,0,0,23,2.875
1764843988.0350912,0,0,35,4.375
1764843988.0390725,0,0,38,4.750
1764843988.043088,0,0,32,4.000
1764843988.0470898,0,0,21,2.625
1764843988.0510905,0,0,22,2.750
1764843988.0550802,0,0,34,4.250
1764843988.059076,0,0,38,4.750
1764843988.0630908,0,0,32,4.000
1764843988.0670896,0,0,21,2.625
1764843988.071088,0,0,21,2.625
1764843988.0751324,0,0,33,4.125
1764843988.0790932,0,0,38,4.750
1764843988.0830936,0,0,32,4.000
1764843988.0870883,0,0,21,2.625
1764843988.091089,0,0,22,2.750
1764843988.0950928,0,0,33,4.125
1764843988.099089,0,0,38,4.750
1764843988.1030939,0,0,33,4.125
1764843988.1070907,0,0,21,2.625
1764843988.1110892,0,0,21,2.625
1764843988.1150916,0,0,32,4.000
1764843988.1190884,0,0,37,4.625
1764843988.123097,0,0,33,4.125
1764843988.1271024,0,0,21,2.625
1764843988.1310902,0,0,21,2.625
1764843988.1350927,0,0,32,4.000
1764843988.1390877,0,0,38,4.750
1764843988.1430924,0,0,34,4.250
1764843988.1470885,0,0,21,2.625
1764843988.1510904,0,0,22,2.750
1764843988.1550944,0,0,31,3.875
1764843988.1590986,0,0,38,4.750
1764843988.163164,0,0,34,4.250
1764843988.1671,0,0,21,2.625
1764843988.1710901,0,0,22,2.750
1764843988.1751237,0,0,30,3.750
1764843988.1790752,0,0,38,4.750
1764843988.1830888,0,0,35,4.375
1764843988.1870885,0,0,22,2.750
1764843988.1910906,0,0,22,2.750
1764843988.1950858,0,0,30,3.750
1764843988.1990747,0,0,37,4.625
1764843988.2031224,0,0,35,4.375
1764843988.2074056,0,0,22,2.750
1764843988.2111351,0,0,21,2.625
1764843988.2151024,0,0,30,3.750
1764843988.2190871,0,0,39,4.875
1764843988.223093,0,0,35,4.375
1764843988.227086,0,0,22,2.750
1764843988.231084,0,0,22,2.750
1764843988.2350864,0,0,29,3.625
1764843988.2390869,0,0,38,4.750
1764843988.2430878,0,0,36,4.500
1764843988.2470877,0,0,23,2.875
1764843988.2510874,0,0,21,2.625
1764843988.2550807,0,0,29,3.625
1764843988.2590694,0,0,38,4.750
1764843988.2630875,0,0,36,4.500
1764843988.2670875,0,0,23,2.875
1764843988.2710998,0,0,21,2.625
1764843988.2750983,0,0,28,3.500
1764843988.2790887,0,0,38,4.750
1764843988.2830832,0,0,36,4.500
1764843988.2870705,0,0,24,3.000
1764843988.291071,0,0,21,2.625
1764843988.2950947,0,0,27,3.375
1764843988.299084,0,0,37,4.625
1764843988.3030813,0,0,37,4.625
1764843988.307068,0,0,24,3.000
1764843988.3110726,0,0,21,2.625
1764843988.3150933,0,0,26,3.250
1764843988.3190873,0,0,38,4.750
1764843988.3230922,0,0,36,4.500
1764843988.3270833,0,0,25,3.125
1764843988.3310838,0,0,21,2.625
1764843988.3350868,0,0,26,3.250
1764843988.3390877,0,0,37,4.625
1764843988.3430939,0,0,37,4.625
1764843988.3470867,0,0,25,3.125
1764843988.3510838,0,0,22,2.750
1764843988.355089,0,0,26,3.250
1764843988.359085,0,0,37,4.625
1764843988.363162,0,0,26,3.250
1764843988.3671026,0,0,21,2.625
1764843988.3710861,0,0,25,3.125
1764843988.3751116,0,0,37,4.625
1764843988.379069,0,0,38,4.750
1764843988.3830874,0,0,26,3.250
1764843988.3870885,0,0,20,2.500
1764843988.3910887,0,0,25,3.125
1764843988.3950825,0,0,38,4.750
1764843988.399067,0,0,37,4.625
1764843988.4030833,0,0,28,3.500
1764843988.4070866,0,0,20,2.500
1764843988.411085,0,0,25,3.125
1764843988.4150844,0,0,37,4.625
1764843988.4190805,0,0,37,4.625
1764843988.423088,0,0,28,3.500
1764843988.4270802,0,0,21,2.625
1764843988.431084,0,0,24,3.000
1764843988.4350915,0,0,36,4.500
1764843988.4390855,0,0,37,4.625
1764843988.443087,0,0,29,3.625
1764843988.44708,0,0,20,2.500
1764843988.4510813,0,0,24,3.000
1764843988.4550855,0,0,36,4.500
1764843988.4590843,0,0,37,4.625
1764843988.4630868,0,0,29,3.625
1764843988.4670813,0,0,20,2.500
1764843988.4710815,0,0,23,2.875
1764843988.475186,0,0,36,4.500
1764843988.479135,0,0,37,4.625
1764843988.4831324,0,0,30,3.750
1764843988.487113,0,0,21,2.625
1764843988.4911077,0,0,23,2.875
1764843988.4951324,0,0,35,4.375
1764843988.4991262,0,0,38,4.750
1764843988.503125,0,0,30,3.750
1764843988.5071092,0,0,20,2.500
1764843988.5111082,0,0,22,2.750
1764843988.5151312,0,0,35,4.375
1764843988.5191255,0,0,38,4.750
1764843988.5231326,0,0,31,3.875
1764843988.5271292,0,0,20,2.500
1764843988.5311284,0,0,23,2.875
1764843988.5351262,0,0,35,4.375
1764843988.5391235,0,0,38,4.750
1764843988.5431297,0,0,31,3.875
1764843988.547129,0,0,21,2.625
1764843988.5511281,0,0,22,2.750
1764843988.5551167,0,0,34,4.250
1764843988.5591106,0,0,37,4.625
1764843988.5691092,0,0,22,2.750
1764843988.5711513,0,0,22,2.750
1764843988.575122,0,0,33,4.125
1764843988.579072,0,0,38,4.750
1764843988.5830896,0,0,33,4.125
1764843988.5870829,0,0,21,2.625
1764843988.5910816,0,0,22,2.750
1764843988.5950766,0,0,33,4.125
1764843988.5990715,0,0,38,4.750
1764843988.6030836,0,0,33,4.125
1764843988.6070807,0,0,21,2.625
1764843988.611079,0,0,22,2.750
1764843988.6150815,0,0,32,4.000
1764843988.6190832,0,0,37,4.625
1764843988.6230826,0,0,33,4.125
1764843988.627081,0,0,21,2.625
1764843988.6310804,0,0,22,2.750
1764843988.6350877,0,0,32,4.000
1764843988.6390817,0,0,37,4.625
1764843988.643088,0,0,34,4.250
1764843988.6470816,0,0,21,2.625
1764843988.6510808,0,0,22,2.750
1764843988.655082,0,0,31,3.875
1764843988.6590803,0,0,38,4.750
1764843988.663083,0,0,34,4.250
1764843988.667081,0,0,22,2.750
1764843988.671083,0,0,22,2.750
1764843988.6751204,0,0,31,3.875
1764843988.6790874,0,0,39,4.875
1764843988.6830792,0,0,35,4.375
1764843988.687063,0,0,21,2.625
1764843988.6910634,0,0,22,2.750
1764843988.6950862,0,0,30,3.750
1764843988.699082,0,0,38,4.750
1764843988.7030756,0,0,35,4.375
1764843988.707063,0,0,22,2.750
1764843988.7110646,0,0,22,2.750
1764843988.7150838,0,0,30,3.750
1764843988.7190828,0,0,38,4.750
1764843988.7230885,0,0,35,4.375
1764843988.7270803,0,0,21,2.625
1764843988.7310784,0,0,29,3.625
1764843988.7350843,0,0,38,4.750
1764843988.7390814,0,0,36,4.500
1764843988.743086,0,0,23,2.875
1764843988.747081,0,0,21,2.625
1764843988.7510815,0,0,29,3.625
1764843988.755085,0,0,38,4.750
1764843988.7590787,0,0,36,4.500
1764843988.7630851,0,0,23,2.875
1764843988.767151,0,0,21,2.625
1764843988.7711017,0,0,28,3.500
1764843988.7751176,0,0,38,4.750
1764843988.7790647,0,0,36,4.500
1764843988.7830787,0,0,24,3.000
1764843988.7870812,0,0,21,2.625
1764843988.7910812,0,0,27,3.375
1764843988.7950757,0,0,38,4.750
1764843988.799065,0,0,36,4.500
1764843988.8030777,0,0,24,3.000
1764843988.8070743,0,0,21,2.625
1764843988.811075,0,0,26,3.250
1764843988.8150723,0,0,38,4.750
1764843988.819063,0,0,37,4.625
1764843988.823066,0,0,24,3.000
1764843988.8270729,0,0,21,2.625
1764843988.831063,0,0,26,3.250
1764843988.8350928,0,0,38,4.750
1764843988.8390825,0,0,36,4.500
1764843988.8430889,0,0,25,3.125
1764843988.8470788,0,0,21,2.625
1764843988.8510768,0,0,25,3.125
1764843988.8550818,0,0,37,4.625
1764843988.8590782,0,0,37,4.625
1764843988.8630862,0,0,26,3.250
1764843988.8670797,0,0,21,2.625
1764843988.8710759,0,0,25,3.125
1764843988.875176,0,0,37,4.625
1764843988.879123,0,0,37,4.625
1764843988.8831298,0,0,26,3.250
1764843988.8871403,0,0,20,2.500
1764843988.891127,0,0,25,3.125
1764843988.8951087,0,0,37,4.625
1764843988.8991032,0,0,37,4.625
1764843988.9031298,0,0,27,3.375
1764843988.9071245,0,0,21,2.625
1764843988.9111223,0,0,24,3.000
1764843988.9151225,0,0,37,4.625
1764843988.9191039,0,0,38,4.750
1764843988.9231215,0,0,27,3.375
1764843988.9271214,0,0,21,2.625
1764843988.931118,0,0,24,3.000
1764843988.9351263,0,0,36,4.500
1764843988.9391236,0,0,37,4.625
1764843988.9431205,0,0,28,3.500
1764843988.9471157,0,0,21,2.625
1764843988.9511213,0,0,24,3.000
1764843988.9551277,0,0,36,4.500
1764843988.9591215,0,0,38,4.750
1764843988.9631279,0,0,29,3.625
1764843988.96719,0,0,21,2.625
1764843988.9711447,0,0,24,3.000
1764843988.9752004,0,0,36,4.500
1764843988.9790652,0,0,37,4.625
1764843988.9830775,0,0,29,3.625
1764843988.9870775,0,0,20,2.500
1764843988.9910743,0,0,23,2.875
1764843988.9950693,0,0,35,4.375
1764843988.9990633,0,0,38,4.750
1764843989.0030808,0,0,30,3.750
1764843989.0070791,0,0,20,2.500
1764843989.0110765,0,0,23,2.875
1764843989.015082,0,0,35,4.375
1764843989.019077,0,0,38,4.750
1764843989.023106,0,0,31,3.875
1764843989.0270991,0,0,21,2.625
1764843989.0310824,0,0,22,2.750
1764843989.0350766,0,0,35,4.375
1764843989.0390613,0,0,37,4.625
1764843989.0430777,0,0,31,3.875
1764843989.0470753,0,0,20,2.500
1764843989.0510778,0,0,22,2.750
1764843989.0550709,0,0,34,4.250
1764843989.0590615,0,0,38,4.750
1764843989.0630744,0,0,32,4.000
1764843989.0670736,0,0,21,2.625
1764843989.0710764,0,0,22,2.750
1764843989.0751119,0,0,34,4.250
1764843989.0790758,0,0,38,4.750
1764843989.0830774,0,0,32,4.000
1764843989.0870728,0,0,21,2.625
1764843989.091074,0,0,22,2.750
1764843989.0950794,0,0,38,4.750
1764843989.0990736,0,0,33,4.125
1764843989.1030786,0,0,21,2.625
1764843989.1070707,0,0,22,2.750
1764843989.1110692,0,0,33,4.125
1764843989.1150882,0,0,38,4.750
1764843989.1190734,0,0,33,4.125
1764843989.1230714,0,0,21,2.625
1764843989.1270733,0,0,21,2.625
1764843989.1310713,0,0,32,4.000
1764843989.1350756,0,0,38,4.750
1764843989.1390705,0,0,34,4.250
1764843989.1430771,0,0,21,2.625
1764843989.1470764,0,0,21,2.625
1764843989.1510732,0,0,31,3.875
1764843989.1550772,0,0,39,4.875
1764843989.1590707,0,0,34,4.250
1764843989.1630754,0,0,22,2.750
1764843989.1671443,0,0,21,2.625
1764843989.171092,0,0,31,3.875
1764843989.1751106,0,0,38,4.750
1764843989.1790583,0,0,35,4.375
1764843989.1830735,0,0,22,2.750
1764843989.18708,0,0,22,2.750
1764843989.1910772,0,0,29,3.625
1764843989.1950698,0,0,38,4.750
1764843989.1990576,0,0,35,4.375
1764843989.2031093,0,0,22,2.750
1764843989.207471,0,0,22,2.750
1764843989.2111473,0,0,29,3.625
1764843989.2150838,0,0,39,4.875
1764843989.219072,0,0,35,4.375
1764843989.223069,0,0,22,2.750
1764843989.2270696,0,0,21,2.625
1764843989.2310576,0,0,28,3.500
1764843989.2350764,0,0,38,4.750
1764843989.2390704,0,0,36,4.500
1764843989.243076,0,0,23,2.875
1764843989.2470703,0,0,21,2.625
1764843989.2510686,0,0,29,3.625
1764843989.255074,0,0,38,4.750
1764843989.259074,0,0,36,4.500
1764843989.2633643,0,0,23,2.875
1764843989.2671304,0,0,21,2.625
1764843989.272477,0,0,28,3.500
1764843989.275212,0,0,38,4.750
1764843989.2790852,0,0,36,4.500
1764843989.283086,0,0,24,3.000
1764843989.2870777,0,0,20,2.500
1764843989.2910762,0,0,28,3.500
1764843989.2950695,0,0,38,4.750
1764843989.2990615,0,0,36,4.500
1764843989.3030972,0,0,24,3.000
1764843989.3070774,0,0,21,2.625
1764843989.3110769,0,0,27,3.375
1764843989.3150792,0,0,38,4.750
1764843989.3190765,0,0,37,4.625
1764843989.3230786,0,0,25,3.125
1764843989.3270617,0,0,21,2.625
1764843989.3310602,0,0,26,3.250
1764843989.335083,0,0,38,4.750
1764843989.3390765,0,0,37,4.625
1764843989.3430822,0,0,25,3.125
1764843989.347076,0,0,21,2.625
1764843989.3510768,0,0,25,3.125
1764843989.355079,0,0,37,4.625
1764843989.3590724,0,0,37,4.625
1764843989.363077,0,0,26,3.250
1764843989.367154,0,0,21,2.625
1764843989.371093,0,0,25,3.125
1764843989.375116,0,0,38,4.750
1764843989.3790755,0,0,37,4.625
1764843989.3830764,0,0,26,3.250
1764843989.3870738,0,0,21,2.625
1764843989.3910728,0,0,25,3.125
1764843989.3950682,0,0,37,4.625
1764843989.3990579,0,0,37,4.625
1764843989.4030795,0,0,27,3.375
1764843989.407075,0,0,21,2.625
1764843989.4110742,0,0,24,3.000
1764843989.4150772,0,0,38,4.750
1764843989.4190807,0,0,37,4.625
1764843989.4230764,0,0,28,3.500
1764843989.4270627,0,0,21,2.625
1764843989.431056,0,0,24,3.000
1764843989.4350808,0,0,37,4.625
1764843989.4390771,0,0,37,4.625
1764843989.4430761,0,0,28,3.500
1764843989.4470608,0,0,21,2.625
1764843989.451059,0,0,23,2.875
1764843989.4550776,0,0,37,4.625
1764843989.4590738,0,0,37,4.625
1764843989.4630795,0,0,29,3.625
1764843989.4670732,0,0,21,2.625
1764843989.471074,0,0,35,4.375
1764843989.475112,0,0,37,4.625
1764843989.4790738,0,0,30,3.750
1764843989.4830759,0,0,21,2.625
1764843989.4870727,0,0,23,2.875
1764843989.4910767,0,0,35,4.375
1764843989.4950788,0,0,37,4.625
1764843989.4990733,0,0,31,3.875
1764843989.5030673,0,0,21,2.625
1764843989.507057,0,0,23,2.875
1764843989.5110583,0,0,36,4.500
1764843989.5150774,0,0,38,4.750
1764843989.5190728,0,0,31,3.875
1764843989.5230782,0,0,20,2.500
1764843989.5270722,0,0,22,2.750
1764843989.531071,0,0,34,4.250
1764843989.5350773,0,0,38,4.750
1764843989.5390744,0,0,31,3.875
1764843989.5430737,0,0,21,2.625
1764843989.5470705,0,0,22,2.750
1764843989.5510705,0,0,34,4.250
1764843989.5550647,0,0,38,4.750
1764843989.5590591,0,0,32,4.000
1764843989.5630736,0,0,20,2.500
1764843989.5719588,0,0,34,4.250
1764843989.5751393,0,0,37,4.625
1764843989.579075,0,0,32,4.000
1764843989.5830781,0,0,20,2.500
1764843989.5870612,0,0,22,2.750
1764843989.5910585,0,0,33,4.125
1764843989.5950766,0,0,38,4.750
1764843989.599073,0,0,32,4.000
1764843989.6030722,0,0,21,2.625
1764843989.6070564,0,0,22,2.750
1764843989.611056,0,0,32,4.000
1764843989.615081,0,0,38,4.750
1764843989.619072,0,0,33,4.125
1764843989.6230855,0,0,21,2.625
1764843989.627076,0,0,22,2.750
1764843989.631073,0,0,31,3.875
1764843989.6350672,0,0,38,4.750
1764843989.6390574,0,0,34,4.250
1764843989.6430736,0,0,21,2.625
1764843989.6470695,0,0,22,2.750
1764843989.651072,0,0,31,3.875
1764843989.655064,0,0,38,4.750
1764843989.6590583,0,0,34,4.250
1764843989.6630774,0,0,21,2.625
1764843989.6670692,0,0,22,2.750
1764843989.6710691,0,0,31,3.875
1764843989.6751094,0,0,38,4.750
1764843989.679073,0,0,34,4.250
1764843989.683078,0,0,22,2.750
1764843989.6870706,0,0,22,2.750
1764843989.6910698,0,0,30,3.750
1764843989.6950707,0,0,38,4.750
1764843989.6990695,0,0,35,4.375
1764843989.7030733,0,0,22,2.750
1764843989.7070737,0,0,22,2.750
1764843989.7110708,0,0,29,3.625
1764843989.7150736,0,0,38,4.750
1764843989.7190676,0,0,35,4.375
1764843989.723075,0,0,22,2.750
1764843989.72707,0,0,21,2.625
1764843989.7310677,0,0,29,3.625
1764843989.735073,0,0,38,4.750
1764843989.7390714,0,0,36,4.500
1764843989.743071,0,0,23,2.875
1764843989.7470696,0,0,21,2.625
1764843989.7510686,0,0,29,3.625
1764843989.7550764,0,0,38,4.750
1764843989.7590663,0,0,36,4.500
1764843989.7630713,0,0,23,2.875
1764843989.767068,0,0,21,2.625
1764843989.7711408,0,0,28,3.500
1764843989.77513,0,0,38,4.750
1764843989.7790737,0,0,36,4.500
1764843989.7830758,0,0,24,3.000
1764843989.787069,0,0,21,2.625
1764843989.7910664,0,0,27,3.375
1764843989.7950635,0,0,38,4.750
1764843989.7990696,0,0,36,4.500
1764843989.8030758,0,0,25,3.125
1764843989.8070667,0,0,21,2.625
1764843989.8110657,0,0,27,3.375
1764843989.8150694,0,0,38,4.750
1764843989.8190687,0,0,36,4.500
1764843989.823076,0,0,25,3.125
1764843989.8270714,0,0,21,2.625
1764843989.8310683,0,0,26,3.250
1764843989.8350906,0,0,37,4.625
1764843989.8390846,0,0,37,4.625
1764843989.8430736,0,0,26,3.250
1764843989.8470569,0,0,25,3.125
1764843989.8510547,0,0,38,4.750
1764843989.855056,0,0,37,4.625
1764843989.859052,0,0,26,3.250
1764843989.8630636,0,0,21,2.625
1764843989.8670557,0,0,25,3.125
1764843989.8710525,0,0,37,4.625
1764843989.875107,0,0,37,4.625
1764843989.8790677,0,0,26,3.250
1764843989.8830729,0,0,20,2.500
1764843989.8870685,0,0,25,3.125
1764843989.8910694,0,0,37,4.625
1764843989.895071,0,0,37,4.625
1764843989.899068,0,0,27,3.375
1764843989.903071,0,0,20,2.500
1764843989.9070647,0,0,24,3.000
1764843989.9110656,0,0,37,4.625
1764843989.91507,0,0,37,4.625
1764843989.9190729,0,0,28,3.500
1764843989.9230735,0,0,20,2.500
1764843989.927068,0,0,24,3.000
1764843989.9310682,0,0,37,4.625
1764843989.9350724,0,0,37,4.625
1764843989.9390676,0,0,29,3.625
1764843989.9430838,0,0,21,2.625
1764843989.9470682,0,0,23,2.875
1764843989.951066,0,0,36,4.500
1764843989.9550705,0,0,37,4.625
1764843989.9590664,0,0,29,3.625
1764843989.963073,0,0,21,2.625
1764843989.9670675,0,0,23,2.875
1764843989.9711418,0,0,36,4.500
1764843989.9750774,0,0,38,4.750
1764843989.9790573,0,0,29,3.625
1764843989.9830735,0,0,20,2.500
1764843989.987069,0,0,23,2.875
1764843989.9910665,0,0,35,4.375
1764843989.9950604,0,0,38,4.750
1764843989.9990487,0,0,31,3.875
1764843990.0030699,0,0,21,2.625
1764843990.0070703,0,0,23,2.875
1764843990.0110714,0,0,34,4.250
1764843990.015064,0,0,38,4.750
1764843990.0190527,0,0,30,3.750
1764843990.023069,0,0,21,2.625
1764843990.027069,0,0,23,2.875
1764843990.031073,0,0,35,4.375
1764843990.0350816,0,0,38,4.750
1764843990.0390692,0,0,32,4.000
1764843990.0430675,0,0,21,2.625
1764843990.047078,0,0,23,2.875
1764843990.0510664,0,0,34,4.250
1764843990.0550613,0,0,38,4.750
1764843990.0590527,0,0,31,3.875
1764843990.0630722,0,0,20,2.500
1764843990.067068,0,0,22,2.750
1764843990.0710626,0,0,34,4.250
1764843990.0750723,0,0,37,4.625
1764843990.079125,0,0,33,4.125
1764843990.0831199,0,0,21,2.625
1764843990.0871274,0,0,22,2.750
1764843990.0911095,0,0,33,4.125
1764843990.095108,0,0,38,4.750
1764843990.0991077,0,0,33,4.125
1764843990.1031156,0,0,21,2.625
1764843990.107112,0,0,22,2.750
1764843990.111111,0,0,32,4.000
1764843990.1151135,0,0,37,4.625
1764843990.1191094,0,0,33,4.125
1764843990.1231172,0,0,22,2.750
1764843990.12711,0,0,22,2.750
1764843990.13111,0,0,32,4.000
1764843990.1351168,0,0,38,4.750
1764843990.1391106,0,0,34,4.250
1764843990.143108,0,0,21,2.625
1764843990.1471107,0,0,22,2.750
1764843990.151112,0,0,31,3.875
1764843990.1551166,0,0,38,4.750
1764843990.1591063,0,0,34,4.250
1764843990.163113,0,0,22,2.750
1764843990.16711,0,0,21,2.625
1764843990.1711876,0,0,30,3.750
1764843990.1751368,0,0,38,4.750
1764843990.1790638,0,0,35,4.375
1764843990.1830742,0,0,22,2.750
1764843990.1870656,0,0,22,2.750
1764843990.1910634,0,0,30,3.750
1764843990.1950598,0,0,38,4.750
1764843990.1990533,0,0,35,4.375
1764843990.2031083,0,0,22,2.750
1764843990.2075672,0,0,30,3.750
1764843990.2111318,0,0,30,3.750
1764843990.215066,0,0,38,4.750
1764843990.219052,0,0,36,4.500
1764843990.2230608,0,0,22,2.750
1764843990.2270515,0,0,29,3.625
1764843990.231049,0,0,38,4.750
1764843990.2350545,0,0,36,4.500
1764843990.2390518,0,0,23,2.875
1764843990.2430546,0,0,22,2.750
1764843990.2470505,0,0,28,3.500
1764843990.2510498,0,0,38,4.750
1764843990.2550514,0,0,36,4.500
1764843990.2590468,0,0,24,3.000
1764843990.2630682,0,0,22,2.750
1764843990.2670875,0,0,27,3.375
1764843990.2710721,0,0,38,4.750
1764843990.2751162,0,0,37,4.625
1764843990.2790673,0,0,24,3.000
1764843990.283065,0,0,21,2.625
1764843990.2870662,0,0,27,3.375
1764843990.2910635,0,0,38,4.750
1764843990.2950664,0,0,36,4.500
1764843990.2990634,0,0,24,3.000
1764843990.3030667,0,0,21,2.625
1764843990.307063,0,0,26,3.250
1764843990.3110642,0,0,38,4.750
1764843990.3150675,0,0,37,4.625
1764843990.3190665,0,0,25,3.125
1764843990.3230724,0,0,21,2.625
1764843990.327063,0,0,26,3.250
1764843990.3310623,0,0,37,4.625
1764843990.3350568,0,0,37,4.625
1764843990.3390832,0,0,26,3.250
1764843990.3430753,0,0,21,2.625
1764843990.3470654,0,0,25,3.125
1764843990.35106,0,0,37,4.625
1764843990.3550644,0,0,37,4.625
1764843990.3590658,0,0,26,3.250
1764843990.3630643,0,0,21,2.625
1764843990.3670514,0,0,25,3.125
1764843990.3711333,0,0,37,4.625
1764843990.3750644,0,0,37,4.625
1764843990.3790882,0,0,27,3.375
1764843990.3830643,0,0,20,2.500
1764843990.3870656,0,0,25,3.125
1764843990.3910644,0,0,37,4.625
1764843990.3950555,0,0,37,4.625
1764843990.3990498,0,0,27,3.375
1764843990.4030666,0,0,21,2.625
1764843990.4070637,0,0,25,3.125
1764843990.411062,0,0,37,4.625
1764843990.4150643,0,0,37,4.625
1764843990.419062,0,0,28,3.500
1764843990.4230666,0,0,20,2.500
1764843990.4270658,0,0,23,2.875
1764843990.4310882,0,0,36,4.500
1764843990.435064,0,0,37,4.625
1764843990.4390469,0,0,29,3.625
1764843990.4430609,0,0,21,2.625
1764843990.4470618,0,0,24,3.000
1764843990.451061,0,0,36,4.500
1764843990.4550502,0,0,38,4.750
1764843990.4590485,0,0,30,3.750
1764843990.4630666,0,0,21,2.625
1764843990.4670622,0,0,23,2.875
1764843990.4710598,0,0,36,4.500
1764843990.4750679,0,0,38,4.750
1764843990.4791007,0,0,30,3.750
1764843990.483068,0,0,21,2.625
1764843990.487064,0,0,23,2.875
1764843990.4910626,0,0,35,4.375
1764843990.495061,0,0,37,4.625
1764843990.4990625,0,0,31,3.875
1764843990.503069,0,0,21,2.625
1764843990.5070622,0,0,22,2.750
1764843990.5110607,0,0,35,4.375
1764843990.5150661,0,0,37,4.625
1764843990.519062,0,0,31,3.875
1764843990.523062,0,0,21,2.625
1764843990.5270495,0,0,23,2.875
1764843990.5310476,0,0,35,4.375
1764843990.5350668,0,0,38,4.750
1764843990.5390608,0,0,32,4.000
1764843990.543064,0,0,21,2.625
1764843990.5470622,0,0,22,2.750
1764843990.5510628,0,0,34,4.250
1764843990.5550559,0,0,37,4.625
1764843990.5590458,0,0,32,4.000
1764843990.563059,0,0,21,2.625
1764843990.5670593,0,0,22,2.750
1764843990.5759885,0,0,33,4.125
1764843990.579104,0,0,33,4.125
1764843990.583068,0,0,20,2.500
1764843990.5870678,0,0,22,2.750
1764843990.591057,0,0,33,4.125
1764843990.59507,0,0,38,4.750
1764843990.599064,0,0,33,4.125
1764843990.603061,0,0,21,2.625
1764843990.6070437,0,0,22,2.750
1764843990.6110432,0,0,38,4.750
1764843990.6150672,0,0,33,4.125
1764843990.619063,0,0,21,2.625
1764843990.6230686,0,0,22,2.750
1764843990.6270604,0,0,32,4.000
1764843990.6310601,0,0,38,4.750
1764843990.6350646,0,0,34,4.250
1764843990.6390612,0,0,21,2.625
1764843990.643064,0,0,22,2.750
1764843990.6470616,0,0,31,3.875
1764843990.6510613,0,0,38,4.750
1764843990.6550572,0,0,35,4.375
1764843990.6590548,0,0,22,2.750
1764843990.6630673,0,0,21,2.625
1764843990.6670592,0,0,30,3.750
1764843990.6710608,0,0,38,4.750
1764843990.6750655,0,0,34,4.250
1764843990.6791003,0,0,22,2.750
1764843990.6830642,0,0,22,2.750
1764843990.6870627,0,0,29,3.625
1764843990.691059,0,0,38,4.750
1764843990.6950617,0,0,35,4.375
1764843990.6990569,0,0,22,2.750
1764843990.7030625,0,0,21,2.625
1764843990.7070553,0,0,29,3.625
1764843990.7110577,0,0,38,4.750
1764843990.715065,0,0,35,4.375
1764843990.71906,0,0,23,2.875
1764843990.723062,0,0,22,2.750
1764843990.72707,0,0,28,3.500
1764843990.7310646,0,0,38,4.750
1764843990.7350523,0,0,36,4.500
1764843990.739044,0,0,23,2.875
1764843990.7430625,0,0,21,2.625
1764843990.7470567,0,0,28,3.500
1764843990.7510583,0,0,38,4.750
1764843990.7550514,0,0,36,4.500
1764843990.7590446,0,0,23,2.875
1764843990.7630618,0,0,21,2.625
1764843990.7670588,0,0,27,3.375
1764843990.771056,0,0,38,4.750
1764843990.7751594,0,0,36,4.500
1764843990.7791293,0,0,24,3.000
1764843990.7830644,0,0,22,2.750
1764843990.7870462,0,0,27,3.375
1764843990.7910454,0,0,38,4.750
1764843990.7950706,0,0,37,4.625
1764843990.7990572,0,0,24,3.000
1764843990.8030531,0,0,21,2.625
1764843990.8070455,0,0,26,3.250
1764843990.8110461,0,0,37,4.625
1764843990.8150682,0,0,37,4.625
1764843990.8190591,0,0,25,3.125
1764843990.823063,0,0,22,2.750
1764843990.8270676,0,0,26,3.250
1764843990.8310597,0,0,38,4.750
1764843990.8350759,0,0,37,4.625
1764843990.8390646,0,0,26,3.250
1764843990.8430579,0,0,21,2.625
1764843990.8470438,0,0,25,3.125
1764843990.851042,0,0,38,4.750
1764843990.8550622,0,0,37,4.625
1764843990.8590596,0,0,26,3.250
1764843990.863053,0,0,21,2.625
1764843990.8670366,0,0,25,3.125
1764843990.8710392,0,0,37,4.625
1764843990.875065,0,0,37,4.625
1764843990.879099,0,0,27,3.375
1764843990.8830645,0,0,21,2.625
1764843990.8870559,0,0,25,3.125
1764843990.8910575,0,0,37,4.625
1764843990.8950489,0,0,37,4.625
1764843990.8990378,0,0,27,3.375
1764843990.9030645,0,0,21,2.625
1764843990.907061,0,0,25,3.125
1764843990.911056,0,0,37,4.625
1764843990.9150577,0,0,37,4.625
1764843990.919056,0,0,28,3.500
1764843990.923059,0,0,20,2.500
1764843990.9270546,0,0,23,2.875
1764843990.9310565,0,0,36,4.500
1764843990.9350579,0,0,37,4.625
1764843990.939058,0,0,28,3.500
1764843990.9430597,0,0,21,2.625
1764843990.947057,0,0,23,2.875
1764843990.9510562,0,0,36,4.500
1764843990.9550617,0,0,37,4.625
1764843990.959053,0,0,29,3.625
1764843990.9630709,0,0,21,2.625
1764843990.9670544,0,0,23,2.875
1764843990.971057,0,0,35,4.375
1764843990.9751344,0,0,37,4.625
1764843990.9790885,0,0,30,3.750
1764843990.9830556,0,0,21,2.625
1764843990.9870398,0,0,23,2.875
1764843990.9910378,0,0,35,4.375
1764843990.995064,0,0,31,3.875
1764843990.999057,0,0,21,2.625
1764843991.003057,0,0,23,2.875
1764843991.0070405,0,0,35,4.375
1764843991.0110383,0,0,38,4.750
1764843991.0150635,0,0,31,3.875
1764843991.0190592,0,0,21,2.625
1764843991.0230632,0,0,22,2.750
1764843991.0270576,0,0,34,4.250
1764843991.031053,0,0,38,4.750
1764843991.0350533,0,0,32,4.000
1764843991.039044,0,0,20,2.500
1764843991.04306,0,0,22,2.750
1764843991.0470595,0,0,34,4.250
1764843991.0510552,0,0,37,4.625
1764843991.0550482,0,0,32,4.000
1764843991.0590382,0,0,21,2.625
1764843991.0630586,0,0,22,2.750
1764843991.0670567,0,0,33,4.125
1764843991.0710585,0,0,38,4.750
1764843991.0750751,0,0,33,4.125
1764843991.0790913,0,0,20,2.500
1764843991.0830598,0,0,22,2.750
1764843991.087059,0,0,33,4.125
1764843991.0910573,0,0,38,4.750
1764843991.0950613,0,0,33,4.125
1764843991.0990543,0,0,21,2.625
1764843991.1030605,0,0,22,2.750
1764843991.1070569,0,0,32,4.000
1764843991.111057,0,0,37,4.625
1764843991.1150599,0,0,33,4.125
1764843991.119055,0,0,21,2.625
1764843991.1230545,0,0,21,2.625
1764843991.1270516,0,0,32,4.000
1764843991.13106,0,0,38,4.750
1764843991.1350634,0,0,33,4.125
1764843991.139058,0,0,21,2.625
1764843991.1430538,0,0,21,2.625
1764843991.1470404,0,0,31,3.875
1764843991.151038,0,0,37,4.625
1764843991.1550574,0,0,34,4.250
1764843991.1590545,0,0,21,2.625
1764843991.1630487,0,0,21,2.625
1764843991.1670392,0,0,31,3.875
1764843991.1710372,0,0,38,4.750
1764843991.175136,0,0,35,4.375
1764843991.1791074,0,0,22,2.750
1764843991.1830552,0,0,21,2.625
1764843991.1870437,0,0,30,3.750
1764843991.1910372,0,0,38,4.750
1764843991.1950583,0,0,36,4.500
1764843991.1990535,0,0,22,2.750
1764843991.203091,0,0,21,2.625
1764843991.2075174,0,0,29,3.625
1764843991.2111368,0,0,38,4.750
1764843991.2150633,0,0,35,4.375
1764843991.2190382,0,0,22,2.750
1764843991.2230484,0,0,22,2.750
1764843991.2270446,0,0,29,3.625
1764843991.2310433,0,0,38,4.750
1764843991.2350504,0,0,36,4.500
1764843991.239037,0,0,23,2.875
1764843991.2430577,0,0,21,2.625
1764843991.2470524,0,0,28,3.500
1764843991.2510557,0,0,38,4.750
1764843991.2550468,0,0,37,4.625
1764843991.259037,0,0,24,3.000
1764843991.2630556,0,0,21,2.625
1764843991.267072,0,0,27,3.375
1764843991.2710543,0,0,38,4.750
1764843991.2750669,0,0,36,4.500
1764843991.2790964,0,0,24,3.000
1764843991.283054,0,0,21,2.625
1764843991.2870495,0,0,27,3.375
1764843991.2910497,0,0,38,4.750
1764843991.2950563,0,0,37,4.625
1764843991.299052,0,0,25,3.125
1764843991.303055,0,0,22,2.750
1764843991.307055,0,0,27,3.375
1764843991.3110518,0,0,38,4.750
1764843991.315055,0,0,37,4.625
1764843991.319054,0,0,25,3.125
1764843991.3230608,0,0,21,2.625
1764843991.3270528,0,0,26,3.250
1764843991.3310502,0,0,38,4.750
1764843991.3350537,0,0,36,4.500
1764843991.3390532,0,0,26,3.250
1764843991.3430605,0,0,21,2.625
1764843991.3470528,0,0,26,3.250
1764843991.3510523,0,0,37,4.625
1764843991.355054,0,0,37,4.625
1764843991.3590496,0,0,26,3.250
1764843991.3630543,0,0,21,2.625
1764843991.3670506,0,0,25,3.125
1764843991.3710546,0,0,37,4.625
1764843991.3751366,0,0,37,4.625
1764843991.3791082,0,0,21,2.625
1764843991.3830552,0,0,25,3.125
1764843991.3870497,0,0,38,4.750
1764843991.391052,0,0,38,4.750
1764843991.3950567,0,0,27,3.375
1764843991.3990526,0,0,20,2.500
1764843991.403051,0,0,25,3.125
1764843991.4070377,0,0,37,4.625
1764843991.4110355,0,0,37,4.625
1764843991.4150631,0,0,29,3.625
1764843991.4190536,0,0,21,2.625
1764843991.4230556,0,0,24,3.000
1764843991.4270477,0,0,36,4.500
1764843991.431047,0,0,37,4.625
1764843991.435055,0,0,29,3.625
1764843991.4390523,0,0,21,2.625
1764843991.4430552,0,0,24,3.000
1764843991.4470518,0,0,36,4.500
1764843991.4510467,0,0,37,4.625
1764843991.45505,0,0,30,3.750
1764843991.4590497,0,0,21,2.625
1764843991.4630556,0,0,23,2.875
1764843991.4670486,0,0,35,4.375
1764843991.4710457,0,0,37,4.625
1764843991.4750538,0,0,30,3.750
1764843991.4790814,0,0,20,2.500
1764843991.4830558,0,0,23,2.875
1764843991.4870489,0,0,35,4.375
1764843991.4910514,0,0,37,4.625
1764843991.4950502,0,0,30,3.750
1764843991.499045,0,0,21,2.625
1764843991.5030513,0,0,23,2.875
1764843991.5070515,0,0,35,4.375
1764843991.51105,0,0,37,4.625
1764843991.5150504,0,0,31,3.875
1764843991.5190477,0,0,21,2.625
1764843991.5230541,0,0,22,2.750
1764843991.5270464,0,0,35,4.375
1764843991.5310543,0,0,38,4.750
1764843991.5350606,0,0,31,3.875
1764843991.5390496,0,0,21,2.625
1764843991.5430498,0,0,22,2.750
1764843991.5470474,0,0,34,4.250
1764843991.551046,0,0,38,4.750
1764843991.555052,0,0,32,4.000
1764843991.5590487,0,0,20,2.500
1764843991.5630527,0,0,22,2.750
1764843991.5670464,0,0,34,4.250
1764843991.57105,0,0,38,4.750
1764843991.5799623,0,0,21,2.625
1764843991.5830812,0,0,21,2.625
1764843991.5870538,0,0,32,4.000
1764843991.5910494,0,0,37,4.625
1764843991.5950503,0,0,33,4.125
1764843991.5990498,0,0,20,2.500
1764843991.60305,0,0,22,2.750
1764843991.6070323,0,0,32,4.000
1764843991.6110344,0,0,37,4.625
1764843991.6150534,0,0,34,4.250
1764843991.6190484,0,0,21,2.625
1764843991.6230543,0,0,22,2.750
1764843991.6270478,0,0,31,3.875
1764843991.6310647,0,0,38,4.750
1764843991.6350648,0,0,34,4.250
1764843991.639048,0,0,21,2.625
1764843991.643045,0,0,22,2.750
1764843991.6470346,0,0,31,3.875
1764843991.6510339,0,0,38,4.750
1764843991.655051,0,0,35,4.375
1764843991.6590471,0,0,22,2.750
1764843991.6630428,0,0,21,2.625
1764843991.6670308,0,0,31,3.875
1764843991.6710308,0,0,38,4.750
1764843991.6750565,0,0,35,4.375
1764843991.6790864,0,0,22,2.750
1764843991.6830556,0,0,21,2.625
1764843991.6870458,0,0,30,3.750
1764843991.6910472,0,0,38,4.750
1764843991.6950524,0,0,35,4.375
1764843991.69905,0,0,23,2.875
1764843991.7030523,0,0,22,2.750
1764843991.7070477,0,0,30,3.750
1764843991.7110465,0,0,38,4.750
1764843991.715049,0,0,35,4.375
1764843991.7190485,0,0,23,2.875
1764843991.7230525,0,0,21,2.625
1764843991.7270474,0,0,29,3.625
1764843991.731046,0,0,38,4.750
1764843991.7350483,0,0,35,4.375
1764843991.7390478,0,0,23,2.875
1764843991.7430522,0,0,21,2.625
1764843991.7470477,0,0,28,3.500
1764843991.7510476,0,0,38,4.750
1764843991.7550528,0,0,36,4.500
1764843991.7590442,0,0,24,3.000
1764843991.7630508,0,0,21,2.625
1764843991.7670467,0,0,28,3.500
1764843991.771047,0,0,38,4.750
1764843991.7750478,0,0,24,3.000
1764843991.7791548,0,0,21,2.625
1764843991.7830608,0,0,27,3.375
1764843991.7870362,0,0,38,4.750
1764843991.791031,0,0,36,4.500
1764843991.7950518,0,0,25,3.125
1764843991.7990453,0,0,21,2.625
1764843991.803043,0,0,26,3.250
1764843991.8070283,0,0,38,4.750
1764843991.8110323,0,0,37,4.625
1764843991.8150554,0,0,25,3.125
1764843991.8190498,0,0,21,2.625
1764843991.8230493,0,0,26,3.250
1764843991.8270419,0,0,38,4.750
1764843991.8310423,0,0,37,4.625
1764843991.8350544,0,0,26,3.250
1764843991.8390489,0,0,21,2.625
1764843991.8430576,0,0,25,3.125
1764843991.8470297,0,0,37,4.625
1764843991.8510277,0,0,37,4.625
1764843991.8550494,0,0,26,3.250
1764843991.8590474,0,0,20,2.500
1764843991.863043,0,0,25,3.125
1764843991.8670306,0,0,37,4.625
1764843991.8710263,0,0,37,4.625
1764843991.8750625,0,0,27,3.375
1764843991.8790843,0,0,21,2.625
1764843991.883053,0,0,24,3.000
1764843991.8870475,0,0,37,4.625
1764843991.8910463,0,0,37,4.625
1764843991.8950462,0,0,27,3.375
1764843991.8990428,0,0,21,2.625
1764843991.9030526,0,0,24,3.000
1764843991.9070427,0,0,36,4.500
1764843991.9110484,0,0,37,4.625
1764843991.9150503,0,0,28,3.500
1764843991.9190443,0,0,21,2.625
1764843991.9230494,0,0,23,2.875
1764843991.9270446,0,0,36,4.500
1764843991.9310455,0,0,37,4.625
1764843991.9350367,0,0,29,3.625
1764843991.9390297,0,0,20,2.500
1764843991.9430466,0,0,23,2.875
1764843991.947045,0,0,36,4.500
1764843991.9510424,0,0,38,4.750
1764843991.9550486,0,0,30,3.750
1764843991.959044,0,0,20,2.500
1764843991.9630463,0,0,23,2.875
1764843991.9670408,0,0,36,4.500
1764843991.9710405,0,0,38,4.750
1764843991.9750473,0,0,30,3.750
1764843991.979116,0,0,21,2.625
1764843991.9830623,0,0,24,3.000
1764843991.9870305,0,0,35,4.375
1764843991.9910257,0,0,38,4.750
1764843991.9950461,0,0,31,3.875
1764843991.9990451,0,0,20,2.500
1764843992.0030415,0,0,23,2.875
1764843992.0070271,0,0,35,4.375
1764843992.0110242,0,0,38,4.750
1764843992.0150468,0,0,31,3.875
1764843992.0190442,0,0,21,2.625
1764843992.0230489,0,0,23,2.875
1764843992.0270445,0,0,34,4.250
1764843992.0310464,0,0,38,4.750
1764843992.0350482,0,0,32,4.000
1764843992.0390456,0,0,21,2.625
1764843992.0430472,0,0,22,2.750
1764843992.0470304,0,0,34,4.250
1764843992.0510275,0,0,38,4.750
1764843992.0550485,0,0,32,4.000
1764843992.059042,0,0,21,2.625
1764843992.0630429,0,0,22,2.750
1764843992.0670419,0,0,34,4.250
1764843992.071043,0,0,37,4.625
1764843992.0750475,0,0,33,4.125
1764843992.079082,0,0,20,2.500
1764843992.08305,0,0,22,2.750
1764843992.087045,0,0,32,4.000
1764843992.0910425,0,0,37,4.625
1764843992.0950487,0,0,33,4.125
1764843992.0990431,0,0,22,2.750
1764843992.1030428,0,0,21,2.625
1764843992.1070387,0,0,32,4.000
1764843992.1110413,0,0,37,4.625
1764843992.115049,0,0,34,4.250
1764843992.119044,0,0,21,2.625
1764843992.1230443,0,0,22,2.750
1764843992.1270425,0,0,32,4.000
1764843992.131044,0,0,38,4.750
1764843992.1350446,0,0,35,4.375
1764843992.1390429,0,0,22,2.750
1764843992.1430461,0,0,21,2.625
1764843992.147043,0,0,31,3.875
1764843992.1510398,0,0,38,4.750
1764843992.1550448,0,0,35,4.375
1764843992.1590416,0,0,22,2.750
1764843992.1630437,0,0,22,2.750
1764843992.1670444,0,0,30,3.750
1764843992.171042,0,0,35,4.375
1764843992.1750546,0,0,22,2.750
1764843992.179127,0,0,22,2.750
1764843992.1830547,0,0,30,3.750
1764843992.187028,0,0,38,4.750
1764843992.1910264,0,0,35,4.375
1764843992.195047,0,0,23,2.875
1764843992.199045,0,0,22,2.750
1764843992.2030754,0,0,29,3.625
1764843992.207581,0,0,38,4.750
1764843992.2111223,0,0,36,4.500
1764843992.2150688,0,0,23,2.875
1764843992.2190263,0,0,21,2.625
1764843992.2230368,0,0,29,3.625
1764843992.2270253,0,0,38,4.750
1764843992.2310276,0,0,36,4.500
1764843992.235032,0,0,23,2.875
1764843992.2390273,0,0,21,2.625
1764843992.2430432,0,0,28,3.500
1764843992.2470415,0,0,38,4.750
1764843992.2510378,0,0,36,4.500
1764843992.255043,0,0,23,2.875
1764843992.2590396,0,0,21,2.625
1764843992.2630455,0,0,27,3.375
1764843992.2670398,0,0,38,4.750
1764843992.2710392,0,0,36,4.500
1764843992.2750452,0,0,23,2.875
1764843992.2790833,0,0,21,2.625
1764843992.2830448,0,0,27,3.375
1764843992.2870402,0,0,38,4.750
1764843992.2910378,0,0,37,4.625
1764843992.2950385,0,0,24,3.000
1764843992.2990406,0,0,21,2.625
1764843992.3030376,0,0,26,3.250
1764843992.307026,0,0,38,4.750
1764843992.3110244,0,0,36,4.500
1764843992.3150413,0,0,25,3.125
1764843992.3190377,0,0,21,2.625
1764843992.323046,0,0,25,3.125
1764843992.327039,0,0,37,4.625
1764843992.3310392,0,0,37,4.625
1764843992.3350434,0,0,25,3.125
1764843992.339036,0,0,21,2.625
1764843992.3430426,0,0,26,3.250
1764843992.347052,0,0,37,4.625
1764843992.3510458,0,0,37,4.625
1764843992.3550367,0,0,27,3.375
1764843992.3590224,0,0,20,2.500
1764843992.3630393,0,0,25,3.125
1764843992.3670375,0,0,37,4.625
1764843992.37104,0,0,37,4.625
1764843992.3750303,0,0,27,3.375
1764843992.379152,0,0,21,2.625
1764843992.3830488,0,0,24,3.000
1764843992.3870242,0,0,37,4.625
1764843992.3910227,0,0,37,4.625
1764843992.3950477,0,0,28,3.500
1764843992.3990393,0,0,21,2.625
1764843992.4030368,0,0,24,3.000
1764843992.4070218,0,0,36,4.500
1764843992.4110527,0,0,37,4.625
1764843992.4150448,0,0,29,3.625
1764843992.419026,0,0,21,2.625
1764843992.4230423,0,0,23,2.875
1764843992.427045,0,0,36,4.500
1764843992.43104,0,0,37,4.625
1764843992.4350393,0,0,29,3.625
1764843992.439037,0,0,20,2.500
1764843992.4430447,0,0,23,2.875
1764843992.4470422,0,0,36,4.500
1764843992.4510362,0,0,37,4.625
1764843992.4550261,0,0,29,3.625
1764843992.4590206,0,0,21,2.625
1764843992.4630554,0,0,23,2.875
1764843992.4670389,0,0,36,4.500
1764843992.471038,0,0,38,4.750
1764843992.4750435,0,0,30,3.750
1764843992.4790387,0,0,21,2.625
1764843992.4830458,0,0,23,2.875
1764843992.4870398,0,0,35,4.375
1764843992.4910388,0,0,38,4.750
1764843992.4950397,0,0,30,3.750
1764843992.499037,0,0,20,2.500
1764843992.5030413,0,0,22,2.750
1764843992.5070345,0,0,34,4.250
1764843992.5110407,0,0,37,4.625
1764843992.515045,0,0,31,3.875
1764843992.5190396,0,0,21,2.625
1764843992.5230417,0,0,22,2.750
1764843992.5270355,0,0,34,4.250
1764843992.5310388,0,0,37,4.625
1764843992.5350382,0,0,32,4.000
1764843992.5390377,0,0,21,2.625
1764843992.5430431,0,0,22,2.750
1764843992.5470378,0,0,34,4.250
1764843992.551035,0,0,38,4.750
1764843992.5550334,0,0,32,4.000
1764843992.5590267,0,0,20,2.500
1764843992.5630333,0,0,22,2.750
1764843992.5670202,0,0,33,4.125
1764843992.5710208,0,0,32,4.000
1764843992.5750396,0,0,21,2.625
1764843992.583958,0,0,33,4.125
1764843992.587065,0,0,37,4.625
1764843992.5910397,0,0,33,4.125
1764843992.5950387,0,0,21,2.625
1764843992.5990212,0,0,22,2.750
1764843992.60304,0,0,32,4.000
1764843992.6070392,0,0,38,4.750
1764843992.6110363,0,0,34,4.250
1764843992.615024,0,0,21,2.625
1764843992.619017,0,0,21,2.625
1764843992.623034,0,0,31,3.875
1764843992.6270225,0,0,38,4.750
1764843992.6310217,0,0,34,4.250
1764843992.6350436,0,0,22,2.750
1764843992.6390388,0,0,21,2.625
1764843992.64304,0,0,31,3.875
1764843992.6470346,0,0,38,4.750
1764843992.6510336,0,0,35,4.375
1764843992.6550379,0,0,22,2.750
1764843992.6590357,0,0,22,2.750
1764843992.663048,0,0,30,3.750
1764843992.6670403,0,0,38,4.750
1764843992.6710362,0,0,35,4.375
1764843992.6750326,0,0,22,2.750
1764843992.6790216,0,0,21,2.625
1764843992.6830382,0,0,29,3.625
1764843992.687032,0,0,38,4.750
1764843992.691033,0,0,35,4.375
1764843992.6950266,0,0,22,2.750
1764843992.6990218,0,0,21,2.625
1764843992.7030442,0,0,29,3.625
1764843992.7070365,0,0,38,4.750
1764843992.7110324,0,0,35,4.375
1764843992.7150388,0,0,23,2.875
1764843992.719036,0,0,21,2.625
1764843992.723041,0,0,28,3.500
1764843992.7270372,0,0,38,4.750
1764843992.7310338,0,0,36,4.500
1764843992.7350342,0,0,23,2.875
1764843992.7390327,0,0,21,2.625
1764843992.7430406,0,0,28,3.500
1764843992.7470343,0,0,38,4.750
1764843992.7510362,0,0,36,4.500
1764843992.7550366,0,0,24,3.000
1764843992.759032,0,0,22,2.750
1764843992.7630386,0,0,27,3.375
1764843992.7670357,0,0,38,4.750
1764843992.7710352,0,0,36,4.500
1764843992.7750413,0,0,24,3.000
1764843992.7790349,0,0,21,2.625
1764843992.7831244,0,0,26,3.250
1764843992.7870471,0,0,38,4.750
1764843992.791036,0,0,36,4.500
1764843992.7950335,0,0,25,3.125
1764843992.7990174,0,0,21,2.625
1764843992.803037,0,0,27,3.375
1764843992.8070347,0,0,37,4.625
1764843992.8110344,0,0,37,4.625
1764843992.815038,0,0,25,3.125
1764843992.8190327,0,0,21,2.625
1764843992.8230371,0,0,26,3.250
1764843992.8270319,0,0,37,4.625
1764843992.8310297,0,0,37,4.625
1764843992.8350406,0,0,26,3.250
1764843992.8390355,0,0,21,2.625
1764843992.8430429,0,0,25,3.125
1764843992.8470335,0,0,38,4.750
1764843992.8510294,0,0,37,4.625
1764843992.8550332,0,0,26,3.250
1764843992.8590324,0,0,21,2.625
1764843992.8630402,0,0,25,3.125
1764843992.8670375,0,0,37,4.625
1764843992.8710322,0,0,37,4.625
1764843992.875028,0,0,27,3.375
1764843992.879018,0,0,20,2.500
1764843992.8830369,0,0,24,3.000
1764843992.8870327,0,0,37,4.625
1764843992.8910336,0,0,38,4.750
1764843992.8950238,0,0,28,3.500
1764843992.899013,0,0,21,2.625
1764843992.9030352,0,0,24,3.000
1764843992.9070342,0,0,37,4.625
1764843992.9110334,0,0,37,4.625
1764843992.9150407,0,0,29,3.625
1764843992.9190338,0,0,20,2.500
1764843992.9230363,0,0,23,2.875
1764843992.927034,0,0,37,4.625
1764843992.9310327,0,0,37,4.625
1764843992.9350386,0,0,29,3.625
1764843992.9390304,0,0,20,2.500
1764843992.9430373,0,0,23,2.875
1764843992.9470313,0,0,36,4.500
1764843992.9510343,0,0,38,4.750
1764843992.9550385,0,0,30,3.750
1764843992.9590325,0,0,20,2.500
1764843992.963035,0,0,23,2.875
1764843992.9670305,0,0,35,4.375
1764843992.97103,0,0,30,3.750
1764843992.9750235,0,0,20,2.500
1764843992.979017,0,0,23,2.875
1764843992.9831412,0,0,35,4.375
1764843992.9870455,0,0,37,4.625
1764843992.9910316,0,0,31,3.875
1764843992.9950273,0,0,20,2.500
1764843992.9990175,0,0,23,2.875
1764843993.0030336,0,0,35,4.375
1764843993.0070338,0,0,38,4.750
1764843993.0110285,0,0,32,4.000
1764843993.0150256,0,0,21,2.625
1764843993.019018,0,0,22,2.750
1764843993.0230412,0,0,34,4.250
1764843993.0270374,0,0,38,4.750
1764843993.0310328,0,0,32,4.000
1764843993.035038,0,0,21,2.625
1764843993.03903,0,0,22,2.750
1764843993.0430384,0,0,34,4.250
1764843993.0470307,0,0,38,4.750
1764843993.0510333,0,0,33,4.125
1764843993.0550225,0,0,21,2.625
1764843993.0590165,0,0,22,2.750
1764843993.0630312,0,0,33,4.125
1764843993.0670345,0,0,37,4.625
1764843993.071036,0,0,33,4.125
1764843993.075038,0,0,21,2.625
1764843993.0790179,0,0,22,2.750
1764843993.0830338,0,0,33,4.125
1764843993.0870285,0,0,38,4.750
1764843993.0910335,0,0,33,4.125
1764843993.0950334,0,0,21,2.625
1764843993.0990338,0,0,22,2.750
1764843993.1030293,0,0,32,4.000
1764843993.1070158,0,0,38,4.750
1764843993.1110137,0,0,34,4.250
1764843993.1150386,0,0,21,2.625
1764843993.119032,0,0,22,2.750
1764843993.123033,0,0,31,3.875
1764843993.1270287,0,0,38,4.750
1764843993.1310296,0,0,34,4.250
1764843993.1350336,0,0,21,2.625
1764843993.1390297,0,0,21,2.625
1764843993.1430366,0,0,30,3.750
1764843993.147031,0,0,38,4.750
1764843993.1510282,0,0,34,4.250
1764843993.1550288,0,0,22,2.750
1764843993.1590316,0,0,21,2.625
1764843993.1630375,0,0,30,3.750
1764843993.1670303,0,0,38,4.750
1764843993.1710262,0,0,34,4.250
1764843993.1750324,0,0,22,2.750
1764843993.1790285,0,0,21,2.625
1764843993.1831183,0,0,29,3.625
1764843993.1870463,0,0,39,4.875
1764843993.1910305,0,0,36,4.500
1764843993.1950266,0,0,23,2.875
1764843993.1990132,0,0,21,2.625
1764843993.2030673,0,0,29,3.625
1764843993.2075598,0,0,38,4.750
1764843993.211114,0,0,36,4.500
1764843993.215034,0,0,23,2.875
1764843993.2190154,0,0,21,2.625
1764843993.2230287,0,0,28,3.500
1764843993.227015,0,0,38,4.750
1764843993.2310154,0,0,36,4.500
1764843993.235017,0,0,24,3.000
1764843993.2390137,0,0,21,2.625
1764843993.2430327,0,0,28,3.500
1764843993.2470298,0,0,38,4.750
1764843993.2510326,0,0,36,4.500
1764843993.255036,0,0,24,3.000
1764843993.2590306,0,0,21,2.625
1764843993.2630365,0,0,27,3.375
1764843993.2670271,0,0,38,4.750
1764843993.2710333,0,0,37,4.625
1764843993.2750573,0,0,24,3.000
1764843993.2790318,0,0,21,2.625
1764843993.283035,0,0,27,3.375
1764843993.2870297,0,0,38,4.750
1764843993.2910285,0,0,37,4.625
1764843993.2950218,0,0,25,3.125
1764843993.2990127,0,0,21,2.625
1764843993.3030336,0,0,26,3.250
1764843993.3070288,0,0,37,4.625
1764843993.3110247,0,0,37,4.625
1764843993.3150275,0,0,26,3.250
1764843993.3190274,0,0,21,2.625
1764843993.3230364,0,0,26,3.250
1764843993.3270302,0,0,37,4.625
1764843993.331028,0,0,37,4.625
1764843993.335028,0,0,26,3.250
1764843993.3390238,0,0,20,2.500
1764843993.3430314,0,0,25,3.125
1764843993.3470254,0,0,37,4.625
1764843993.3510265,0,0,37,4.625
1764843993.355034,0,0,26,3.250
1764843993.359026,0,0,21,2.625
1764843993.3630283,0,0,24,3.000
1764843993.3670275,0,0,37,4.625
1764843993.37104,0,0,37,4.625
1764843993.3750327,0,0,27,3.375
1764843993.3790247,0,0,24,3.000
1764843993.3831117,0,0,37,4.625
1764843993.3870418,0,0,37,4.625
1764843993.3910282,0,0,28,3.500
1764843993.3950253,0,0,21,2.625
1764843993.399013,0,0,24,3.000
1764843993.4030292,0,0,37,4.625
1764843993.4070268,0,0,37,4.625
1764843993.4110231,0,0,29,3.625
1764843993.4150183,0,0,20,2.500
1764843993.419014,0,0,24,3.000
1764843993.423029,0,0,36,4.500
1764843993.4270263,0,0,37,4.625
1764843993.4310253,0,0,29,3.625
1764843993.4350352,0,0,20,2.500
1764843993.4390283,0,0,23,2.875
1764843993.443031,0,0,36,4.500
1764843993.4470277,0,0,37,4.625
1764843993.4510233,0,0,30,3.750
1764843993.4550135,0,0,21,2.625
1764843993.4590101,0,0,23,2.875
1764843993.4630306,0,0,36,4.500
1764843993.467028,0,0,37,4.625
1764843993.471027,0,0,30,3.750
1764843993.475033,0,0,21,2.625
1764843993.4790251,0,0,22,2.750
1764843993.4830403,0,0,35,4.375
1764843993.4870338,0,0,38,4.750
1764843993.4910297,0,0,31,3.875
1764843993.4950185,0,0,20,2.500
1764843993.4990072,0,0,23,2.875
1764843993.5030274,0,0,34,4.250
1764843993.507027,0,0,37,4.625
1764843993.5110285,0,0,31,3.875
1764843993.515025,0,0,21,2.625
1764843993.5190098,0,0,22,2.750
1764843993.5230327,0,0,34,4.250
1764843993.5270236,0,0,38,4.750
1764843993.5310233,0,0,32,4.000
1764843993.5350282,0,0,21,2.625
1764843993.539026,0,0,22,2.750
1764843993.5430264,0,0,33,4.125
1764843993.5470204,0,0,37,4.625
1764843993.551023,0,0,32,4.000
1764843993.5550292,0,0,20,2.500
1764843993.5590105,0,0,22,2.750
1764843993.5630262,0,0,33,4.125
1764843993.5670245,0,0,38,4.750
1764843993.571023,0,0,33,4.125
1764843993.575027,0,0,22,2.750
1764843993.5790243,0,0,23,2.875
1764843993.5880246,0,0,38,4.750
1764843993.5910444,0,0,33,4.125
1764843993.5950284,0,0,20,2.500
1764843993.5990124,0,0,21,2.625
1764843993.603029,0,0,31,3.875
1764843993.6070251,0,0,38,4.750
1764843993.611022,0,0,34,4.250
1764843993.615015,0,0,21,2.625
1764843993.6190069,0,0,21,2.625
1764843993.62303,0,0,32,4.000
1764843993.6270297,0,0,38,4.750
1764843993.6310265,0,0,35,4.375
1764843993.6350272,0,0,22,2.750
1764843993.6390214,0,0,21,2.625
1764843993.6430254,0,0,31,3.875
1764843993.64701,0,0,38,4.750
1764843993.651008,0,0,35,4.375
1764843993.65503,0,0,22,2.750
1764843993.6590235,0,0,22,2.750
1764843993.6630273,0,0,29,3.625
1764843993.667024,0,0,38,4.750
1764843993.6710293,0,0,35,4.375
1764843993.6750357,0,0,22,2.750
1764843993.6790261,0,0,21,2.625
1764843993.683024,0,0,29,3.625
1764843993.687008,0,0,38,4.750
1764843993.6910093,0,0,35,4.375
1764843993.695029,0,0,22,2.750
1764843993.699026,0,0,21,2.625
1764843993.7030225,0,0,28,3.500
1764843993.7070105,0,0,38,4.750
1764843993.7110076,0,0,36,4.500
1764843993.7150307,0,0,23,2.875
1764843993.719024,0,0,21,2.625
1764843993.7230308,0,0,28,3.500
1764843993.7270195,0,0,38,4.750
1764843993.731024,0,0,36,4.500
1764843993.735024,0,0,23,2.875
1764843993.7390249,0,0,21,2.625
1764843993.7430294,0,0,27,3.375
1764843993.7470238,0,0,38,4.750
1764843993.75102,0,0,36,4.500
1764843993.7550242,0,0,24,3.000
1764843993.7590187,0,0,21,2.625
1764843993.7630248,0,0,27,3.375
1764843993.7670193,0,0,37,4.625
1764843993.7710216,0,0,37,4.625
1764843993.7750282,0,0,25,3.125
1764843993.779023,0,0,22,2.750
1764843993.783074,0,0,38,4.750
1764843993.7871447,0,0,37,4.625
1764843993.791078,0,0,25,3.125
1764843993.7950628,0,0,21,2.625
1764843993.7990458,0,0,26,3.250
1764843993.8030682,0,0,38,4.750
1764843993.807065,0,0,37,4.625
1764843993.8110654,0,0,25,3.125
1764843993.815068,0,0,21,2.625
1764843993.8190646,0,0,26,3.250
1764843993.8230681,0,0,37,4.625
1764843993.8270648,0,0,37,4.625
1764843993.8310688,0,0,26,3.250
1764843993.8350716,0,0,21,2.625
1764843993.839068,0,0,25,3.125
1764843993.8430734,0,0,37,4.625
1764843993.8470607,0,0,38,4.750
1764843993.8510656,0,0,27,3.375
1764843993.8550713,0,0,21,2.625
1764843993.8590674,0,0,24,3.000
1764843993.8630707,0,0,37,4.625
1764843993.8670626,0,0,37,4.625
1764843993.871062,0,0,27,3.375
1764843993.8750708,0,0,21,2.625
1764843993.8790781,0,0,24,3.000
1764843993.8830285,0,0,37,4.625
1764843993.8870094,0,0,37,4.625
1764843993.8910067,0,0,28,3.500
1764843993.8950267,0,0,21,2.625
1764843993.8990216,0,0,23,2.875
1764843993.903019,0,0,36,4.500
1764843993.907008,0,0,37,4.625
1764843993.9110053,0,0,29,3.625
1764843993.915026,0,0,21,2.625
1764843993.9190183,0,0,23,2.875
1764843993.9230273,0,0,36,4.500
1764843993.927021,0,0,37,4.625
1764843993.9310246,0,0,29,3.625
1764843993.9350226,0,0,21,2.625
1764843993.9390154,0,0,23,2.875
1764843993.943022,0,0,36,4.500
1764843993.9470196,0,0,37,4.625
1764843993.951019,0,0,29,3.625
1764843993.9550195,0,0,20,2.500
1764843993.9590204,0,0,23,2.875
1764843993.9630246,0,0,35,4.375
1764843993.967017,0,0,38,4.750
1764843993.9710197,0,0,31,3.875
1764843993.975024,0,0,20,2.500
1764843993.9790215,0,0,23,2.875
1764843993.9830701,0,0,35,4.375
1764843993.9871368,0,0,38,4.750
1764843993.9910753,0,0,31,3.875
1764843993.995058,0,0,21,2.625
1764843993.999046,0,0,22,2.750
1764843994.0030675,0,0,35,4.375
1764843994.00706,0,0,38,4.750
1764843994.0110633,0,0,32,4.000
1764843994.0150568,0,0,21,2.625
1764843994.0190446,0,0,22,2.750
1764843994.0230784,0,0,34,4.250
1764843994.0270655,0,0,37,4.625
1764843994.0310597,0,0,32,4.000
1764843994.035066,0,0,21,2.625
1764843994.0390642,0,0,22,2.750
1764843994.0430691,0,0,34,4.250
1764843994.0470643,0,0,38,4.750
1764843994.0510619,0,0,33,4.125
1764843994.0550542,0,0,21,2.625
1764843994.0590425,0,0,22,2.750
1764843994.0630639,0,0,32,4.000
1764843994.067063,0,0,38,4.750
1764843994.071064,0,0,33,4.125
1764843994.0750725,0,0,21,2.625
1764843994.0790641,0,0,22,2.750
1764843994.0830286,0,0,32,4.000
1764843994.0870273,0,0,38,4.750
1764843994.091027,0,0,34,4.250
1764843994.095014,0,0,21,2.625
1764843994.0990036,0,0,22,2.750
1764843994.1030216,0,0,31,3.875
1764843994.107017,0,0,37,4.625
1764843994.1110184,0,0,34,4.250
1764843994.1150165,0,0,21,2.625
1764843994.1190028,0,0,21,2.625
1764843994.1230195,0,0,31,3.875
1764843994.1270165,0,0,38,4.750
1764843994.1310205,0,0,34,4.250
1764843994.1350243,0,0,22,2.750
1764843994.139017,0,0,21,2.625
1764843994.1430209,0,0,30,3.750
1764843994.147016,0,0,38,4.750
1764843994.1510143,0,0,35,4.375
1764843994.1550221,0,0,22,2.750
1764843994.159019,0,0,21,2.625
1764843994.1630251,0,0,30,3.750
1764843994.1670167,0,0,38,4.750
1764843994.1710153,0,0,36,4.500
1764843994.175015,0,0,23,2.875
1764843994.1790175,0,0,21,2.625
1764843994.183025,0,0,29,3.625
1764843994.1870918,0,0,39,4.875
1764843994.1910233,0,0,36,4.500
1764843994.195017,0,0,22,2.750
1764843994.199001,0,0,29,3.625
1764843994.2030485,0,0,38,4.750
1764843994.2075849,0,0,36,4.500
1764843994.211096,0,0,23,2.875
1764843994.2150166,0,0,21,2.625
1764843994.2190006,0,0,28,3.500
1764843994.2230165,0,0,38,4.750
1764843994.227005,0,0,36,4.500
1764843994.2310114,0,0,24,3.000
1764843994.2350075,0,0,21,2.625
1764843994.2389994,0,0,28,3.500
1764843994.243004,0,0,38,4.750
1764843994.2470024,0,0,36,4.500
1764843994.2510018,0,0,24,3.000
1764843994.255024,0,0,21,2.625
1764843994.2590153,0,0,27,3.375
1764843994.2630231,0,0,38,4.750
1764843994.2670224,0,0,37,4.625
1764843994.2710154,0,0,25,3.125
1764843994.2750247,0,0,21,2.625
1764843994.27902,0,0,26,3.250
1764843994.2830179,0,0,38,4.750
1764843994.2870357,0,0,37,4.625
1764843994.2910237,0,0,25,3.125
1764843994.295023,0,0,21,2.625
1764843994.2990174,0,0,26,3.250
1764843994.3030171,0,0,38,4.750
1764843994.3070123,0,0,37,4.625
1764843994.3110127,0,0,26,3.250
1764843994.3150165,0,0,20,2.500
1764843994.3190172,0,0,26,3.250
1764843994.323019,0,0,38,4.750
1764843994.3270152,0,0,37,4.625
1764843994.3310149,0,0,26,3.250
1764843994.3350143,0,0,21,2.625
1764843994.3390167,0,0,25,3.125
1764843994.3430228,0,0,38,4.750
1764843994.347017,0,0,37,4.625
1764843994.3510134,0,0,27,3.375
1764843994.35502,0,0,21,2.625
1764843994.3590121,0,0,24,3.000
1764843994.3630207,0,0,37,4.625
1764843994.367017,0,0,37,4.625
1764843994.371016,0,0,27,3.375
1764843994.3750145,0,0,21,2.625
1764843994.3790128,0,0,24,3.000
1764843994.3830636,0,0,37,4.625
1764843994.3871336,0,0,37,4.625
1764843994.3910718,0,0,29,3.625
1764843994.3950605,0,0,21,2.625
1764843994.3990371,0,0,23,2.875
1764843994.4030578,0,0,36,4.500
1764843994.4070592,0,0,37,4.625
1764843994.4110599,0,0,29,3.625
1764843994.415051,0,0,20,2.500
1764843994.419041,0,0,23,2.875
1764843994.4230618,0,0,36,4.500
1764843994.4270597,0,0,38,4.750
1764843994.4310596,0,0,29,3.625
1764843994.4350674,0,0,21,2.625
1764843994.4390626,0,0,23,2.875
1764843994.443064,0,0,36,4.500
1764843994.4470594,0,0,38,4.750
1764843994.4510567,0,0,30,3.750
1764843994.455062,0,0,21,2.625
1764843994.4590583,0,0,23,2.875
1764843994.4630666,0,0,36,4.500
1764843994.4670603,0,0,38,4.750
1764843994.4710562,0,0,31,3.875
1764843994.4750588,0,0,21,2.625
1764843994.4790568,0,0,23,2.875
1764843994.483027,0,0,35,4.375
1764843994.4870174,0,0,38,4.750
1764843994.491013,0,0,31,3.875
1764843994.495003,0,0,21,2.625
1764843994.4990304,0,0,22,2.750
1764843994.5030239,0,0,34,4.250
1764843994.507014,0,0,38,4.750
1764843994.511013,0,0,32,4.000
1764843994.5150142,0,0,20,2.500
1764843994.5190148,0,0,22,2.750
1764843994.523014,0,0,34,4.250
1764843994.5270004,0,0,38,4.750
1764843994.5310004,0,0,32,4.000
1764843994.5350196,0,0,21,2.625
1764843994.5390127,0,0,22,2.750
1764843994.5430167,0,0,33,4.125
1764843994.5470123,0,0,38,4.750
1764843994.5510101,0,0,33,4.125
1764843994.5550063,0,0,21,2.625
1764843994.5589948,0,0,22,2.750
1764843994.563014,0,0,32,4.000
1764843994.567012,0,0,38,4.750
1764843994.571014,0,0,34,4.250
1764843994.5750172,0,0,21,2.625
1764843994.579012,0,0,21,2.625
1764843994.5830638,0,0,32,4.000
1764843994.593068,0,0,21,2.625
1764843994.5950823,0,0,21,2.625
1764843994.5990794,0,0,20,2.500
1764843994.603058,0,0,31,3.875
1764843994.6070397,0,0,38,4.750
1764843994.6110375,0,0,21,2.625
1764843994.6150787,0,0,21,2.625
1764843994.6190584,0,0,31,3.875
1764843994.6230521,0,0,38,4.750
1764843994.6270382,0,0,34,4.250
1764843994.6310372,0,0,21,2.625
1764843994.635059,0,0,21,2.625
1764843994.639062,0,0,29,3.625
1764843994.643068,0,0,38,4.750
1764843994.647061,0,0,35,4.375
1764843994.6510558,0,0,22,2.750
1764843994.6550608,0,0,21,2.625
1764843994.6590543,0,0,30,3.750
1764843994.6630507,0,0,38,4.750
1764843994.66704,0,0,35,4.375
1764843994.671041,0,0,22,2.750
1764843994.675061,0,0,21,2.625
1764843994.6790557,0,0,29,3.625
1764843994.68302,0,0,38,4.750
1764843994.6870131,0,0,36,4.500
1764843994.6910133,0,0,23,2.875
1764843994.6950197,0,0,21,2.625
1764843994.6990101,0,0,29,3.625
1764843994.7030146,0,0,38,4.750
1764843994.7070143,0,0,36,4.500
1764843994.711018,0,0,24,3.000
1764843994.715008,0,0,22,2.750
1764843994.7189999,0,0,27,3.375
1764843994.72301,0,0,38,4.750
1764843994.727012,0,0,37,4.625
1764843994.7310123,0,0,24,3.000
1764843994.7350056,0,0,22,2.750
1764843994.7389972,0,0,27,3.375
1764843994.7430103,0,0,37,4.625
1764843994.7470088,0,0,36,4.500
1764843994.7510104,0,0,24,3.000
1764843994.7550151,0,0,21,2.625
1764843994.7590137,0,0,26,3.250
1764843994.7630172,0,0,37,4.625
1764843994.7670078,0,0,36,4.500
1764843994.7710078,0,0,25,3.125
1764843994.7750103,0,0,21,2.625
1764843994.7790127,0,0,25,3.125
1764843994.7830188,0,0,38,4.750
1764843994.7870083,0,0,36,4.500
1764843994.7910736,0,0,25,3.125
1764843994.7950132,0,0,22,2.750
1764843994.798993,0,0,26,3.250
1764843994.8030164,0,0,38,4.750
1764843994.8070252,0,0,36,4.500
1764843994.8110082,0,0,26,3.250
1764843994.8150077,0,0,21,2.625
1764843994.8190043,0,0,25,3.125
1764843994.8230157,0,0,37,4.625
1764843994.8270102,0,0,37,4.625
1764843994.83101,0,0,26,3.250
1764843994.8350146,0,0,20,2.500
1764843994.839008,0,0,25,3.125
1764843994.8430192,0,0,37,4.625
1764843994.8470187,0,0,37,4.625
1764843994.85101,0,0,27,3.375
1764843994.855001,0,0,21,2.625
1764843994.8589928,0,0,25,3.125
1764843994.8630068,0,0,37,4.625
1764843994.867006,0,0,37,4.625
1764843994.8710103,0,0,28,3.500
1764843994.8750045,0,0,21,2.625
1764843994.8789942,0,0,24,3.000
1764843994.8830109,0,0,37,4.625
1764843994.88701,0,0,37,4.625
1764843994.891006,0,0,28,3.500
1764843994.8950083,0,0,20,2.500
1764843994.899009,0,0,24,3.000
1764843994.9030159,0,0,36,4.500
1764843994.9070065,0,0,37,4.625
1764843994.9110034,0,0,29,3.625
1764843994.9150102,0,0,20,2.500
1764843994.919011,0,0,23,2.875
1764843994.9230156,0,0,36,4.500
1764843994.9270098,0,0,37,4.625
1764843994.9310067,0,0,30,3.750
1764843994.935008,0,0,20,2.500
1764843994.9390073,0,0,22,2.750
1764843994.9430134,0,0,35,4.375
1764843994.947007,0,0,37,4.625
1764843994.951008,0,0,30,3.750
1764843994.9550118,0,0,21,2.625
1764843994.9590068,0,0,22,2.750
1764843994.963011,0,0,35,4.375
1764843994.967011,0,0,38,4.750
1764843994.97101,0,0,31,3.875
1764843994.9750044,0,0,21,2.625
1764843994.9790049,0,0,23,2.875
1764843994.983059,0,0,34,4.250
1764843994.9870515,0,0,38,4.750
1764843994.9911234,0,0,32,4.000
1764843994.9950655,0,0,20,2.500
1764843994.9990318,0,0,22,2.750
1764843995.003053,0,0,34,4.250
1764843995.0070508,0,0,38,4.750
1764843995.0110533,0,0,32,4.000
1764843995.0150416,0,0,21,2.625
1764843995.0190341,0,0,23,2.875
1764843995.0230556,0,0,38,4.750
1764843995.0270517,0,0,33,4.125
1764843995.031053,0,0,21,2.625
1764843995.0350618,0,0,21,2.625
1764843995.039054,0,0,33,4.125
1764843995.0430536,0,0,38,4.750
1764843995.0470812,0,0,33,4.125
1764843995.0510526,0,0,21,2.625
1764843995.055041,0,0,22,2.750
1764843995.0590343,0,0,32,4.000
1764843995.0630717,0,0,38,4.750
1764843995.067054,0,0,34,4.250
1764843995.0710514,0,0,21,2.625
1764843995.0750477,0,0,22,2.750
1764843995.079034,0,0,32,4.000
1764843995.0830166,0,0,38,4.750
1764843995.0870101,0,0,34,4.250
1764843995.0910063,0,0,21,2.625
1764843995.0950053,0,0,22,2.750
1764843995.0990047,0,0,31,3.875
1764843995.103014,0,0,38,4.750
1764843995.1070082,0,0,34,4.250
1764843995.1110048,0,0,21,2.625
1764843995.1149998,0,0,22,2.750
1764843995.1189902,0,0,30,3.750
1764843995.1230075,0,0,38,4.750
1764843995.127007,0,0,35,4.375
1764843995.1310072,0,0,22,2.750
1764843995.1350062,0,0,22,2.750
1764843995.1390047,0,0,30,3.750
1764843995.1430078,0,0,38,4.750
1764843995.1470025,0,0,35,4.375
1764843995.151007,0,0,22,2.750
1764843995.1550128,0,0,21,2.625
1764843995.1590025,0,0,29,3.625
1764843995.1630085,0,0,38,4.750
1764843995.1670063,0,0,36,4.500
1764843995.171006,0,0,23,2.875
1764843995.1750066,0,0,22,2.750
1764843995.179006,0,0,28,3.500
1764843995.1830533,0,0,38,4.750
1764843995.1870449,0,0,35,4.375
1764843995.1911263,0,0,23,2.875
1764843995.1950738,0,0,21,2.625
1764843995.1990514,0,0,28,3.500
1764843995.2030802,0,0,38,4.750
1764843995.2075186,0,0,35,4.375
1764843995.2111614,0,0,23,2.875
1764843995.215058,0,0,22,2.750
1764843995.219038,0,0,28,3.500
1764843995.2230446,0,0,38,4.750
1764843995.2270353,0,0,37,4.625
1764843995.2310274,0,0,24,3.000
1764843995.2350326,0,0,22,2.750
1764843995.2390323,0,0,27,3.375
1764843995.2430348,0,0,38,4.750
1764843995.2470293,0,0,36,4.500
1764843995.2510273,0,0,25,3.125
1764843995.2550552,0,0,21,2.625
1764843995.25905,0,0,26,3.250
1764843995.2630568,0,0,38,4.750
1764843995.2671208,0,0,37,4.625
1764843995.2711794,0,0,25,3.125
1764843995.275307,0,0,21,2.625
1764843995.2791176,0,0,25,3.125
1764843995.2830248,0,0,38,4.750
1764843995.2870078,0,0,37,4.625
1764843995.291005,0,0,26,3.250
1764843995.2950072,0,0,21,2.625
1764843995.2989998,0,0,25,3.125
1764843995.303006,0,0,37,4.625
1764843995.3070052,0,0,37,4.625
1764843995.3110034,0,0,27,3.375
1764843995.3150125,0,0,21,2.625
1764843995.3190043,0,0,25,3.125
1764843995.3230078,0,0,38,4.750
1764843995.3269987,0,0,37,4.625
1764843995.3310006,0,0,27,3.375
1764843995.335007,0,0,21,2.625
1764843995.3390026,0,0,25,3.125
1764843995.3430061,0,0,37,4.625
1764843995.3470006,0,0,37,4.625
1764843995.3510005,0,0,28,3.500
1764843995.355008,0,0,21,2.625
1764843995.3590026,0,0,24,3.000
1764843995.363009,0,0,37,4.625
1764843995.3670013,0,0,37,4.625
1764843995.3709993,0,0,28,3.500
1764843995.375006,0,0,20,2.500
1764843995.3790023,0,0,24,3.000
1764843995.3830554,0,0,36,4.500
1764843995.3870482,0,0,38,4.750
1764843995.3911233,0,0,28,3.500
1764843995.3950605,0,0,20,2.500
1764843995.399031,0,0,24,3.000
1764843995.4030638,0,0,36,4.500
1764843995.407048,0,0,37,4.625
1764843995.4110441,0,0,29,3.625
1764843995.4150493,0,0,21,2.625
1764843995.4190452,0,0,23,2.875
1764843995.4230475,0,0,36,4.500
1764843995.42703,0,0,38,4.750
1764843995.431029,0,0,30,3.750
1764843995.4350615,0,0,21,2.625
1764843995.4390483,0,0,23,2.875
1764843995.44305,0,0,35,4.375
1764843995.4470491,0,0,31,3.875
1764843995.451048,0,0,20,2.500
1764843995.4550512,0,0,23,2.875
1764843995.4590437,0,0,35,4.375
1764843995.4630482,0,0,38,4.750
1764843995.4670482,0,0,31,3.875
1764843995.471048,0,0,21,2.625
1764843995.4750562,0,0,23,2.875
1764843995.4790456,0,0,35,4.375
1764843995.4829972,0,0,38,4.750
1764843995.4869862,0,0,32,4.000
1764843995.4909866,0,0,21,2.625
1764843995.4950085,0,0,22,2.750
1764843995.4990022,0,0,34,4.250
1764843995.5030067,0,0,38,4.750
1764843995.507,0,0,32,4.000
1764843995.511,0,0,20,2.500
1764843995.5150175,0,0,22,2.750
1764843995.5190055,0,0,33,4.125
1764843995.523009,0,0,38,4.750
1764843995.5270007,0,0,32,4.000
1764843995.530999,0,0,21,2.625
1764843995.5349908,0,0,22,2.750
1764843995.538997,0,0,33,4.125
1764843995.5430045,0,0,38,4.750
1764843995.5470045,0,0,33,4.125
1764843995.550999,0,0,21,2.625
1764843995.554994,0,0,22,2.750
1764843995.5589867,0,0,32,4.000
1764843995.5630047,0,0,38,4.750
1764843995.5670018,0,0,33,4.125
1764843995.571002,0,0,21,2.625
1764843995.5750024,0,0,21,2.625
1764843995.5789998,0,0,31,3.875
1764843995.5830543,0,0,38,4.750
1764843995.587048,0,0,35,4.375
1764843995.5971568,0,0,22,2.750
1764843995.599046,0,0,30,3.750
1764843995.6030512,0,0,37,4.625
1764843995.607026,0,0,34,4.250
1764843995.6110303,0,0,21,2.625
1764843995.615049,0,0,21,2.625
1764843995.6190414,0,0,30,3.750
1764843995.6230383,0,0,37,4.625
1764843995.6270242,0,0,35,4.375
1764843995.6310265,0,0,22,2.750
1764843995.6350565,0,0,21,2.625
1764843995.6390448,0,0,29,3.625
1764843995.6430469,0,0,38,4.750
1764843995.647041,0,0,35,4.375
1764843995.6510453,0,0,22,2.750
1764843995.6550481,0,0,21,2.625
1764843995.6590402,0,0,29,3.625
1764843995.6630495,0,0,38,4.750
1764843995.6670413,0,0,35,4.375
1764843995.6710389,0,0,23,2.875
1764843995.6750486,0,0,22,2.750
1764843995.6790447,0,0,29,3.625
1764843995.6830049,0,0,38,4.750
1764843995.6869829,0,0,36,4.500
1764843995.690981,0,0,23,2.875
1764843995.6949987,0,0,22,2.750
1764843995.698998,0,0,28,3.500
1764843995.7030008,0,0,38,4.750
1764843995.7069983,0,0,36,4.500
1764843995.7109942,0,0,24,3.000
1764843995.7150002,0,0,21,2.625
1764843995.7189956,0,0,27,3.375
1764843995.7230098,0,0,38,4.750
1764843995.7270067,0,0,37,4.625
1764843995.7310019,0,0,24,3.000
1764843995.7349885,0,0,22,2.750
1764843995.738983,0,0,27,3.375
1764843995.742999,0,0,38,4.750
1764843995.7469988,0,0,37,4.625
1764843995.7509959,0,0,25,3.125
1764843995.7549968,0,0,21,2.625
1764843995.7589796,0,0,26,3.250
1764843995.763003,0,0,38,4.750
1764843995.7670012,0,0,37,4.625
1764843995.7710001,0,0,25,3.125
1764843995.7750027,0,0,21,2.625
1764843995.7790053,0,0,26,3.250
1764843995.7830517,0,0,38,4.750
1764843995.7870421,0,0,37,4.625
1764843995.791043,0,0,26,3.250
1764843995.7951188,0,0,21,2.625
1764843995.79906,0,0,25,3.125
1764843995.803044,0,0,37,4.625
1764843995.8070228,0,0,37,4.625
1764843995.811022,0,0,26,3.250
1764843995.8150473,0,0,21,2.625
1764843995.8190424,0,0,25,3.125
1764843995.8230402,0,0,37,4.625
1764843995.8270226,0,0,37,4.625
1764843995.831021,0,0,27,3.375
1764843995.8350487,0,0,21,2.625
1764843995.839043,0,0,25,3.125
1764843995.8430529,0,0,37,4.625
1764843995.8470414,0,0,37,4.625
1764843995.8510675,0,0,28,3.500
1764843995.8550556,0,0,21,2.625
1764843995.8590438,0,0,24,3.000
1764843995.8630385,0,0,36,4.500
1764843995.8670256,0,0,37,4.625
1764843995.871022,0,0,20,2.500
1764843995.8750408,0,0,24,3.000
1764843995.8790367,0,0,37,4.625
1764843995.882998,0,0,37,4.625
1764843995.8869815,0,0,29,3.625
1764843995.8909826,0,0,20,2.500
1764843995.8950012,0,0,24,3.000
1764843995.8990061,0,0,36,4.500
1764843995.9030006,0,0,38,4.750
1764843995.9069989,0,0,30,3.750
1764843995.9109983,0,0,20,2.500
1764843995.9150052,0,0,24,3.000
1764843995.9189944,0,0,36,4.500
1764843995.9229958,0,0,38,4.750
1764843995.9269972,0,0,30,3.750
1764843995.9310005,0,0,21,2.625
1764843995.9350026,0,0,22,2.750
1764843995.9389968,0,0,36,4.500
1764843995.9429984,0,0,37,4.625
1764843995.9469965,0,0,31,3.875
1764843995.9509962,0,0,20,2.500
1764843995.9550016,0,0,22,2.750
1764843995.9589949,0,0,35,4.375
1764843995.9629974,0,0,38,4.750
1764843995.966993,0,0,31,3.875
1764843995.9709957,0,0,21,2.625
1764843995.9750006,0,0,22,2.750
1764843995.9789994,0,0,34,4.250
1764843995.9830463,0,0,38,4.750
1764843995.987039,0,0,32,4.000
1764843995.9910355,0,0,21,2.625
1764843995.9951255,0,0,21,2.625
1764843995.9990544,0,0,33,4.125
1764843996.0030396,0,0,38,4.750
1764843996.0070224,0,0,32,4.000
1764843996.011021,0,0,20,2.500
1764843996.0150404,0,0,22,2.750
1764843996.0190427,0,0,33,4.125
1764843996.0230396,0,0,37,4.625
1764843996.0270247,0,0,32,4.000
1764843996.0310204,0,0,21,2.625
1764843996.0350475,0,0,22,2.750
1764843996.0390377,0,0,32,4.000
1764843996.043046,0,0,38,4.750
1764843996.0470386,0,0,33,4.125
1764843996.0510402,0,0,21,2.625
1764843996.0550313,0,0,22,2.750
1764843996.0590196,0,0,32,4.000
1764843996.06304,0,0,38,4.750
1764843996.0670376,0,0,34,4.250
1764843996.0710366,0,0,21,2.625
1764843996.0750475,0,0,22,2.750
1764843996.0790362,0,0,31,3.875
1764843996.0830019,0,0,38,4.750
1764843996.0869918,0,0,35,4.375
1764843996.0909922,0,0,21,2.625
1764843996.094986,0,0,22,2.750
1764843996.0989783,0,0,31,3.875
1764843996.102997,0,0,37,4.625
1764843996.1069922,0,0,35,4.375
1764843996.1109953,0,0,22,2.750
1764843996.1150024,0,0,21,2.625
1764843996.1189923,0,0,30,3.750
1764843996.1229954,0,0,38,4.750
1764843996.126991,0,0,35,4.375
1764843996.130994,0,0,21,2.625
1764843996.134996,0,0,21,2.625
1764843996.138994,0,0,30,3.750
1764843996.142996,0,0,38,4.750
1764843996.1469893,0,0,36,4.500
1764843996.15099,0,0,23,2.875
1764843996.155007,0,0,21,2.625
1764843996.1589947,0,0,29,3.625
1764843996.1629915,0,0,38,4.750
1764843996.1669784,0,0,35,4.375
1764843996.1709769,0,0,23,2.875
1764843996.1749957,0,0,21,2.625
1764843996.1789954,0,0,28,3.500
1764843996.1830008,0,0,38,4.750
1764843996.1869943,0,0,36,4.500
1764843996.190993,0,0,23,2.875
1764843996.1950667,0,0,22,2.750
1764843996.1990073,0,0,28,3.500
1764843996.2030275,0,0,38,4.750
1764843996.207542,0,0,36,4.500
1764843996.2110777,0,0,24,3.000
1764843996.2149944,0,0,21,2.625
1764843996.2189765,0,0,28,3.500
1764843996.222988,0,0,38,4.750
1764843996.226981,0,0,35,4.375
1764843996.2309773,0,0,24,3.000
1764843996.234983,0,0,21,2.625
1764843996.2389731,0,0,26,3.250
1764843996.242981,0,0,38,4.750
1764843996.2469807,0,0,37,4.625
1764843996.2509844,0,0,25,3.125
1764843996.2549844,0,0,21,2.625
1764843996.2589755,0,0,26,3.250
1764843996.2629945,0,0,38,4.750
1764843996.2669911,0,0,37,4.625
1764843996.2709928,0,0,25,3.125
1764843996.274983,0,0,21,2.625
1764843996.278999,0,0,26,3.250
1764843996.2829955,0,0,38,4.750
1764843996.286994,0,0,36,4.500
1764843996.290992,0,0,26,3.250
1764843996.2949994,0,0,20,2.500
1764843996.298995,0,0,38,4.750
1764843996.3029926,0,0,37,4.625
1764843996.306975,0,0,27,3.375
1764843996.3109736,0,0,21,2.625
1764843996.3149955,0,0,24,3.000
1764843996.3189938,0,0,37,4.625
1764843996.3229988,0,0,37,4.625
1764843996.3269942,0,0,27,3.375
1764843996.3309925,0,0,20,2.500
1764843996.3349953,0,0,25,3.125
1764843996.3389897,0,0,37,4.625
1764843996.3429976,0,0,38,4.750
1764843996.3469915,0,0,28,3.500
1764843996.3509948,0,0,20,2.500
1764843996.354993,0,0,24,3.000
1764843996.3589861,0,0,36,4.500
1764843996.3629975,0,0,38,4.750
1764843996.3669918,0,0,28,3.500
1764843996.3709927,0,0,21,2.625
1764843996.374992,0,0,24,3.000
1764843996.3789902,0,0,36,4.500
1764843996.3830438,0,0,37,4.625
1764843996.3870356,0,0,29,3.625
1764843996.3910348,0,0,20,2.500
1764843996.3951273,0,0,23,2.875
1764843996.3990498,0,0,36,4.500
1764843996.4030364,0,0,38,4.750
1764843996.4070163,0,0,30,3.750
1764843996.4110193,0,0,21,2.625
1764843996.4150405,0,0,23,2.875
1764843996.41904,0,0,35,4.375
1764843996.4230332,0,0,37,4.625
1764843996.4270163,0,0,30,3.750
1764843996.4310157,0,0,20,2.500
1764843996.4350457,0,0,23,2.875
1764843996.4390354,0,0,35,4.375
1764843996.4430394,0,0,37,4.625
1764843996.4470317,0,0,30,3.750
1764843996.4510338,0,0,21,2.625
1764843996.455038,0,0,23,2.875
1764843996.4590342,0,0,35,4.375
1764843996.463041,0,0,37,4.625
1764843996.4670312,0,0,31,3.875
1764843996.4710307,0,0,20,2.500
1764843996.4750347,0,0,23,2.875
1764843996.4790285,0,0,34,4.250
1764843996.482999,0,0,38,4.750
1764843996.4869888,0,0,32,4.000
1764843996.4909873,0,0,20,2.500
1764843996.4949903,0,0,22,2.750
1764843996.4989862,0,0,33,4.125
1764843996.502993,0,0,38,4.750
1764843996.5069914,0,0,33,4.125
1764843996.5109901,0,0,21,2.625
1764843996.5149882,0,0,22,2.750
1764843996.5189862,0,0,33,4.125
1764843996.5229943,0,0,38,4.750
1764843996.5269907,0,0,33,4.125
1764843996.5309873,0,0,21,2.625
1764843996.5349998,0,0,22,2.750
1764843996.538995,0,0,32,4.000
1764843996.5429885,0,0,38,4.750
1764843996.5469742,0,0,34,4.250
1764843996.5509727,0,0,21,2.625
1764843996.5549908,0,0,21,2.625
1764843996.5589716,0,0,32,4.000
1764843996.562989,0,0,38,4.750
1764843996.5669842,0,0,33,4.125
1764843996.570989,0,0,21,2.625
1764843996.5749915,0,0,21,2.625
1764843996.5789883,0,0,31,3.875
1764843996.583036,0,0,38,4.750
1764843996.5870292,0,0,34,4.250
1764843996.5910313,0,0,21,2.625
1764843996.6011906,0,0,38,4.750
1764843996.6031306,0,0,38,4.750
1764843996.6070492,0,0,34,4.250
1764843996.611032,0,0,22,2.750
1764843996.6150286,0,0,21,2.625
1764843996.6190174,0,0,30,3.750
1764843996.6230383,0,0,37,4.625
1764843996.6270297,0,0,35,4.375
1764843996.6310303,0,0,22,2.750
1764843996.6350229,0,0,21,2.625
1764843996.6390176,0,0,30,3.750
1764843996.643038,0,0,38,4.750
1764843996.6470346,0,0,36,4.500
1764843996.6510284,0,0,22,2.750
1764843996.655034,0,0,21,2.625
1764843996.6590652,0,0,29,3.625
1764843996.663049,0,0,38,4.750
1764843996.6670313,0,0,36,4.500
1764843996.671031,0,0,24,3.000
1764843996.6750326,0,0,21,2.625
1764843996.6790285,0,0,28,3.500
1764843996.6829894,0,0,38,4.750
1764843996.6869752,0,0,36,4.500
1764843996.6909716,0,0,23,2.875
1764843996.6949973,0,0,21,2.625
1764843996.6989858,0,0,27,3.375
1764843996.7029839,0,0,38,4.750
1764843996.706973,0,0,37,4.625
1764843996.7109728,0,0,24,3.000
1764843996.7149901,0,0,21,2.625
1764843996.7189865,0,0,27,3.375
1764843996.72299,0,0,38,4.750
1764843996.7269852,0,0,25,3.125
1764843996.7309873,0,0,21,2.625
1764843996.7349932,0,0,26,3.250
1764843996.7389889,0,0,37,4.625
1764843996.7429867,0,0,36,4.500
1764843996.7469842,0,0,25,3.125
1764843996.750984,0,0,21,2.625
1764843996.7549915,0,0,26,3.250
1764843996.7589867,0,0,37,4.625
1764843996.7629912,0,0,37,4.625
1764843996.7669833,0,0,25,3.125
1764843996.7709846,0,0,21,2.625
1764843996.774992,0,0,26,3.250
1764843996.7789884,0,0,37,4.625
1764843996.7830408,0,0,37,4.625
1764843996.7870283,0,0,26,3.250
1764843996.7910266,0,0,21,2.625
1764843996.7950358,0,0,24,3.000
1764843996.7991014,0,0,37,4.625
1764843996.8030493,0,0,37,4.625
1764843996.8070147,0,0,27,3.375
1764843996.8110118,0,0,21,2.625
1764843996.8150327,0,0,24,3.000
1764843996.8190298,0,0,37,4.625
1764843996.823029,0,0,37,4.625
1764843996.8270128,0,0,28,3.500
1764843996.8310127,0,0,20,2.500
1764843996.835033,0,0,23,2.875
1764843996.839028,0,0,37,4.625
1764843996.8430316,0,0,37,4.625
1764843996.8470302,0,0,28,3.500
1764843996.8510299,0,0,21,2.625
1764843996.8550355,0,0,24,3.000
1764843996.8590262,0,0,36,4.500
1764843996.8630345,0,0,37,4.625
1764843996.8670294,0,0,28,3.500
1764843996.8710282,0,0,21,2.625
1764843996.875036,0,0,23,2.875
1764843996.8790257,0,0,36,4.500
1764843996.8830125,0,0,38,4.750
1764843996.886983,0,0,29,3.625
1764843996.8909822,0,0,20,2.500
1764843996.894986,0,0,23,2.875
1764843996.8989801,0,0,35,4.375
1764843996.9029884,0,0,37,4.625
1764843996.9069831,0,0,30,3.750
1764843996.910983,0,0,20,2.500
1764843996.9149911,0,0,23,2.875
1764843996.918984,0,0,34,4.250
1764843996.922988,0,0,37,4.625
1764843996.9269822,0,0,31,3.875
1764843996.9309788,0,0,21,2.625
1764843996.9349854,0,0,22,2.750
1764843996.9389834,0,0,35,4.375
1764843996.9429965,0,0,37,4.625
1764843996.9469914,0,0,31,3.875
1764843996.9509933,0,0,21,2.625
1764843996.954982,0,0,22,2.750
1764843996.958983,0,0,34,4.250
1764843996.9629884,0,0,38,4.750
1764843996.9669862,0,0,32,4.000
1764843996.9709826,0,0,20,2.500
1764843996.9749851,0,0,22,2.750
1764843996.9789662,0,0,35,4.375
1764843996.9831028,0,0,38,4.750
1764843996.9870038,0,0,32,4.000
1764843996.9909847,0,0,21,2.625
1764843996.9949844,0,0,22,2.750
1764843996.999049,0,0,33,4.125
1764843997.002993,0,0,38,4.750
1764843997.006981,0,0,32,4.000
1764843997.0109813,0,0,21,2.625
1764843997.0149882,0,0,22,2.750
1764843997.018982,0,0,33,4.125
1764843997.0229776,0,0,38,4.750
1764843997.0269706,0,0,33,4.125
1764843997.0309694,0,0,21,2.625
1764843997.0349932,0,0,22,2.750
1764843997.0389848,0,0,32,4.000
1764843997.0429885,0,0,38,4.750
1764843997.0469897,0,0,34,4.250
1764843997.050988,0,0,21,2.625
1764843997.0549753,0,0,22,2.750
1764843997.0589702,0,0,32,4.000
1764843997.0629826,0,0,38,4.750
1764843997.0669832,0,0,34,4.250
1764843997.0709825,0,0,21,2.625
1764843997.0749784,0,0,22,2.750
1764843997.0789676,0,0,31,3.875
1764843997.0830019,0,0,38,4.750
1764843997.086984,0,0,35,4.375
1764843997.09098,0,0,22,2.750
1764843997.0949836,0,0,21,2.625
1764843997.098984,0,0,31,3.875
1764843997.1029906,0,0,38,4.750
1764843997.1069827,0,0,35,4.375
1764843997.1109786,0,0,22,2.750
1764843997.1149862,0,0,21,2.625
1764843997.1189814,0,0,30,3.750
1764843997.1229868,0,0,38,4.750
1764843997.1269789,0,0,35,4.375
1764843997.130982,0,0,22,2.750
1764843997.1349738,0,0,22,2.750
1764843997.1389635,0,0,29,3.625
1764843997.14299,0,0,38,4.750
1764843997.1469855,0,0,36,4.500
1764843997.1509821,0,0,23,2.875
1764843997.154974,0,0,22,2.750
1764843997.1589656,0,0,38,4.750
1764843997.1629813,0,0,36,4.500
1764843997.16698,0,0,23,2.875
1764843997.1709805,0,0,21,2.625
1764843997.1749873,0,0,28,3.500
1764843997.1789792,0,0,38,4.750
1764843997.1829884,0,0,36,4.500
1764843997.1869822,0,0,23,2.875
1764843997.1909819,0,0,21,2.625
1764843997.1949885,0,0,28,3.500
1764843997.1990495,0,0,38,4.750
1764843997.2030292,0,0,37,4.625
1764843997.2075546,0,0,25,3.125
1764843997.2110603,0,0,21,2.625
1764843997.2149875,0,0,27,3.375
1764843997.218969,0,0,38,4.750
1764843997.2229753,0,0,37,4.625
1764843997.2269645,0,0,25,3.125
1764843997.2309647,0,0,21,2.625
1764843997.2349722,0,0,27,3.375
1764843997.2389672,0,0,37,4.625
1764843997.2429695,0,0,37,4.625
1764843997.2469609,0,0,25,3.125
1764843997.2509596,0,0,21,2.625
1764843997.254969,0,0,26,3.250
1764843997.2589734,0,0,38,4.750
1764843997.262974,0,0,37,4.625
1764843997.2669635,0,0,26,3.250
1764843997.2709577,0,0,21,2.625
1764843997.2749858,0,0,25,3.125
1764843997.2789872,0,0,37,4.625
1764843997.282987,0,0,37,4.625
1764843997.286981,0,0,26,3.250
1764843997.2909808,0,0,21,2.625
1764843997.2949722,0,0,25,3.125
1764843997.298962,0,0,37,4.625
1764843997.3029835,0,0,37,4.625
1764843997.3069801,0,0,27,3.375
1764843997.3109927,0,0,20,2.500
1764843997.3149803,0,0,25,3.125
1764843997.3189807,0,0,37,4.625
1764843997.3229868,0,0,37,4.625
1764843997.3269944,0,0,27,3.375
1764843997.3309824,0,0,20,2.500
1764843997.334987,0,0,24,3.000
1764843997.3389785,0,0,36,4.500
1764843997.3429928,0,0,37,4.625
1764843997.3469796,0,0,29,3.625
1764843997.3509798,0,0,21,2.625
1764843997.354987,0,0,23,2.875
1764843997.358978,0,0,36,4.500
1764843997.3629827,0,0,37,4.625
1764843997.3669791,0,0,30,3.750
1764843997.3709772,0,0,21,2.625
1764843997.374989,0,0,23,2.875
1764843997.3789816,0,0,36,4.500
1764843997.3829808,0,0,37,4.625
1764843997.3869762,0,0,30,3.750
1764843997.390979,0,0,21,2.625
1764843997.3949828,0,0,23,2.875
1764843997.3990638,0,0,35,4.375
1764843997.4029932,0,0,37,4.625
1764843997.406965,0,0,30,3.750
1764843997.4109597,0,0,20,2.500
1764843997.4149854,0,0,23,2.875
1764843997.418982,0,0,36,4.500
1764843997.4229763,0,0,38,4.750
1764843997.4269614,0,0,31,3.875
1764843997.4309604,0,0,20,2.500
1764843997.4349804,0,0,23,2.875
1764843997.438981,0,0,35,4.375
1764843997.4429839,0,0,38,4.750
1764843997.4469748,0,0,32,4.000
1764843997.4509723,0,0,20,2.500
1764843997.4549804,0,0,22,2.750
1764843997.4589736,0,0,34,4.250
1764843997.4629781,0,0,38,4.750
1764843997.4669764,0,0,32,4.000
1764843997.4709797,0,0,21,2.625
1764843997.4749837,0,0,22,2.750
1764843997.4789758,0,0,33,4.125
1764843997.48298,0,0,38,4.750
1764843997.486978,0,0,33,4.125
1764843997.4909754,0,0,21,2.625
1764843997.49498,0,0,22,2.750
1764843997.4989731,0,0,33,4.125
1764843997.5029807,0,0,37,4.625
1764843997.5069773,0,0,33,4.125
1764843997.510977,0,0,20,2.500
1764843997.5149794,0,0,22,2.750
1764843997.5189762,0,0,32,4.000
1764843997.5229785,0,0,38,4.750
1764843997.5269735,0,0,33,4.125
1764843997.5309746,0,0,21,2.625
1764843997.5349784,0,0,21,2.625
1764843997.5389767,0,0,31,3.875
1764843997.5429788,0,0,38,4.750
1764843997.5469716,0,0,34,4.250
1764843997.5509744,0,0,22,2.750
1764843997.55497,0,0,22,2.750
1764843997.5589583,0,0,31,3.875
1764843997.562979,0,0,38,4.750
1764843997.5669768,0,0,34,4.250
1764843997.5709739,0,0,22,2.750
1764843997.5749774,0,0,21,2.625
1764843997.5789747,0,0,31,3.875
1764843997.5830352,0,0,38,4.750
1764843997.5870152,0,0,35,4.375
1764843997.591015,0,0,22,2.750
1764843997.595024,0,0,30,3.750
1764843997.6051788,0,0,35,4.375
1764843997.6070771,0,0,22,2.750
1764843997.6110218,0,0,21,2.625
1764843997.6150217,0,0,29,3.625
1764843997.6190012,0,0,38,4.750
1764843997.6230252,0,0,35,4.375
1764843997.6270204,0,0,22,2.750
1764843997.631019,0,0,21,2.625
1764843997.635012,0,0,29,3.625
1764843997.6389976,0,0,38,4.750
1764843997.6430216,0,0,35,4.375
1764843997.647021,0,0,23,2.875
1764843997.6510208,0,0,21,2.625
1764843997.6550224,0,0,28,3.500
1764843997.659019,0,0,38,4.750
1764843997.6630201,0,0,36,4.500
1764843997.6670165,0,0,23,2.875
1764843997.6710024,0,0,21,2.625
1764843997.6750267,0,0,28,3.500
1764843997.6790159,0,0,38,4.750
1764843997.6829793,0,0,36,4.500
1764843997.6869745,0,0,24,3.000
1764843997.6909757,0,0,21,2.625
1764843997.6949642,0,0,27,3.375
1764843997.6989613,0,0,38,4.750
1764843997.7029798,0,0,37,4.625
1764843997.7069738,0,0,25,3.125
1764843997.7109704,0,0,20,2.500
1764843997.7149813,0,0,26,3.250
1764843997.718974,0,0,37,4.625
1764843997.7229798,0,0,37,4.625
1764843997.7269554,0,0,25,3.125
1764843997.7309554,0,0,21,2.625
1764843997.7349768,0,0,26,3.250
1764843997.738974,0,0,38,4.750
1764843997.7429786,0,0,36,4.500
1764843997.7469711,0,0,25,3.125
1764843997.7509735,0,0,21,2.625
1764843997.7549767,0,0,25,3.125
1764843997.758972,0,0,38,4.750
1764843997.7629788,0,0,37,4.625
1764843997.766973,0,0,26,3.250
1764843997.7709703,0,0,21,2.625
1764843997.7749672,0,0,25,3.125
1764843997.7789762,0,0,37,4.625
1764843997.7830262,0,0,37,4.625
1764843997.7870178,0,0,26,3.250
1764843997.7910194,0,0,21,2.625
1764843997.7950237,0,0,25,3.125
1764843997.7990143,0,0,37,4.625
1764843997.8030975,0,0,37,4.625
1764843997.8070302,0,0,28,3.500
1764843997.8110182,0,0,21,2.625
1764843997.8150187,0,0,24,3.000
1764843997.819013,0,0,37,4.625
1764843997.8230145,0,0,37,4.625
1764843997.827017,0,0,28,3.500
1764843997.8310177,0,0,21,2.625
1764843997.8350134,0,0,23,2.875
1764843997.8389988,0,0,37,4.625
1764843997.8430214,0,0,37,4.625
1764843997.8470206,0,0,28,3.500
1764843997.8510206,0,0,21,2.625
1764843997.8550172,0,0,24,3.000
1764843997.8590176,0,0,37,4.625
1764843997.863023,0,0,38,4.750
1764843997.8670123,0,0,29,3.625
1764843997.871014,0,0,20,2.500
1764843997.8750262,0,0,23,2.875
1764843997.879016,0,0,35,4.375
1764843997.8829808,0,0,37,4.625
1764843997.8869724,0,0,30,3.750
1764843997.8909705,0,0,20,2.500
1764843997.8949747,0,0,23,2.875
1764843997.8989747,0,0,35,4.375
1764843997.9029772,0,0,37,4.625
1764843997.906968,0,0,31,3.875
1764843997.9109714,0,0,20,2.500
1764843997.914977,0,0,22,2.750
1764843997.9189715,0,0,35,4.375
1764843997.9229753,0,0,38,4.750
1764843997.9269724,0,0,31,3.875
1764843997.9309692,0,0,21,2.625
1764843997.9349692,0,0,22,2.750
1764843997.9389706,0,0,34,4.250
1764843997.942978,0,0,37,4.625
1764843997.9469728,0,0,31,3.875
1764843997.9509702,0,0,20,2.500
1764843997.9549742,0,0,22,2.750
1764843997.9589696,0,0,34,4.250
1764843997.9629762,0,0,38,4.750
1764843997.9669702,0,0,32,4.000
1764843997.97097,0,0,21,2.625
1764843997.974973,0,0,22,2.750
1764843997.9789686,0,0,33,4.125
1764843997.9830205,0,0,39,4.875
1764843997.9870167,0,0,33,4.125
1764843997.9910154,0,0,21,2.625
1764843997.995023,0,0,22,2.750
1764843997.999021,0,0,32,4.000
1764843998.0030882,0,0,38,4.750
1764843998.007007,0,0,33,4.125
1764843998.0109968,0,0,21,2.625
1764843998.0150237,0,0,22,2.750
1764843998.0190172,0,0,32,4.000
1764843998.0230315,0,0,37,4.625
1764843998.0270174,0,0,34,4.250
1764843998.0310118,0,0,22,2.750
1764843998.0350223,0,0,32,4.000
1764843998.0390162,0,0,38,4.750
1764843998.0430322,0,0,34,4.250
1764843998.047016,0,0,22,2.750
1764843998.051011,0,0,22,2.750
1764843998.0550246,0,0,31,3.875
1764843998.059018,0,0,39,4.875
1764843998.0630138,0,0,34,4.250
1764843998.0670078,0,0,22,2.750
1764843998.0710099,0,0,22,2.750
1764843998.0750153,0,0,30,3.750
1764843998.079016,0,0,38,4.750
1764843998.0829725,0,0,35,4.375
1764843998.0869567,0,0,22,2.750
1764843998.090951,0,0,22,2.750
1764843998.094976,0,0,30,3.750
1764843998.0989685,0,0,38,4.750
1764843998.1029778,0,0,35,4.375
1764843998.1069708,0,0,22,2.750
1764843998.11097,0,0,22,2.750
1764843998.1149738,0,0,29,3.625
1764843998.1189666,0,0,38,4.750
1764843998.122974,0,0,35,4.375
1764843998.12697,0,0,22,2.750
1764843998.130971,0,0,22,2.750
1764843998.1349685,0,0,29,3.625
1764843998.138967,0,0,38,4.750
1764843998.142977,0,0,36,4.500
1764843998.1469712,0,0,23,2.875
1764843998.1509702,0,0,21,2.625
1764843998.1549776,0,0,28,3.500
1764843998.1589682,0,0,38,4.750
1764843998.1629717,0,0,36,4.500
1764843998.1669657,0,0,24,3.000
1764843998.1709688,0,0,21,2.625
1764843998.1749582,0,0,27,3.375
1764843998.1789541,0,0,38,4.750
1764843998.1830175,0,0,36,4.500
1764843998.187013,0,0,24,3.000
1764843998.191015,0,0,21,2.625
1764843998.1950202,0,0,27,3.375
1764843998.1990123,0,0,38,4.750
1764843998.20314,0,0,36,4.500
1764843998.207698,0,0,24,3.000
1764843998.2111297,0,0,22,2.750
1764843998.2150173,0,0,26,3.250
1764843998.218998,0,0,38,4.750
1764843998.223003,0,0,36,4.500
1764843998.2270033,0,0,25,3.125
1764843998.230994,0,0,21,2.625
1764843998.2349982,0,0,26,3.250
1764843998.238997,0,0,38,4.750
1764843998.2430184,0,0,37,4.625
1764843998.2470138,0,0,25,3.125
1764843998.2510095,0,0,21,2.625
1764843998.2550125,0,0,26,3.250
1764843998.2590137,0,0,37,4.625
1764843998.2630196,0,0,36,4.500
1764843998.2670171,0,0,26,3.250
1764843998.2710137,0,0,21,2.625
1764843998.2750142,0,0,25,3.125
1764843998.2790406,0,0,37,4.625
1764843998.2829807,0,0,37,4.625
1764843998.2869704,0,0,26,3.250
1764843998.2909656,0,0,21,2.625
1764843998.294971,0,0,25,3.125
1764843998.2989624,0,0,37,4.625
1764843998.302967,0,0,37,4.625
1764843998.3069656,0,0,28,3.500
1764843998.3109624,0,0,21,2.625
1764843998.314972,0,0,24,3.000
1764843998.3189652,0,0,36,4.500
1764843998.3229651,0,0,38,4.750
1764843998.3269677,0,0,28,3.500
1764843998.3309686,0,0,21,2.625
1764843998.3349712,0,0,24,3.000
1764843998.3389678,0,0,37,4.625
1764843998.3429697,0,0,38,4.750
1764843998.3469636,0,0,29,3.625
1764843998.3509674,0,0,21,2.625
1764843998.3549745,0,0,24,3.000
1764843998.3589668,0,0,36,4.500
1764843998.3629715,0,0,37,4.625
1764843998.3669674,0,0,30,3.750
1764843998.3709636,0,0,21,2.625
1764843998.3749688,0,0,23,2.875
1764843998.3789673,0,0,35,4.375
1764843998.3830218,0,0,37,4.625
1764843998.3870082,0,0,30,3.750
1764843998.3910081,0,0,21,2.625
1764843998.395016,0,0,23,2.875
1764843998.399013,0,0,35,4.375
1764843998.4030933,0,0,38,4.750
1764843998.4070468,0,0,31,3.875
1764843998.4110267,0,0,20,2.500
1764843998.4149992,0,0,22,2.750
1764843998.4189951,0,0,35,4.375
1764843998.4230158,0,0,38,4.750
1764843998.427023,0,0,32,4.000
1764843998.431011,0,0,20,2.500
1764843998.4350064,0,0,23,2.875
1764843998.4389932,0,0,34,4.250
1764843998.4430141,0,0,38,4.750
1764843998.4470134,0,0,32,4.000
1764843998.4510121,0,0,21,2.625
1764843998.4550095,0,0,22,2.750
1764843998.4590218,0,0,34,4.250
1764843998.4630177,0,0,38,4.750
1764843998.4670105,0,0,32,4.000
1764843998.4710252,0,0,22,2.750
1764843998.4750226,0,0,33,4.125
1764843998.4790082,0,0,38,4.750
1764843998.4829712,0,0,33,4.125
1764843998.4869509,0,0,21,2.625
1764843998.4909627,0,0,22,2.750
1764843998.4949694,0,0,32,4.000
1764843998.4989643,0,0,38,4.750
1764843998.5029604,0,0,33,4.125
1764843998.5069573,0,0,21,2.625
1764843998.5109484,0,0,22,2.750
1764843998.5149708,0,0,32,4.000
1764843998.518964,0,0,38,4.750
1764843998.5229676,0,0,34,4.250
1764843998.5269632,0,0,21,2.625
1764843998.5309649,0,0,22,2.750
1764843998.5349717,0,0,32,4.000
1764843998.5389652,0,0,38,4.750
1764843998.5429678,0,0,34,4.250
1764843998.5469627,0,0,22,2.750
1764843998.5509624,0,0,21,2.625
1764843998.5549529,0,0,31,3.875
1764843998.558948,0,0,38,4.750
1764843998.5629694,0,0,35,4.375
1764843998.5669656,0,0,22,2.750
1764843998.570962,0,0,22,2.750
1764843998.5749671,0,0,30,3.750
1764843998.5789673,0,0,38,4.750
1764843998.5830178,0,0,35,4.375
1764843998.5870113,0,0,22,2.750
1764843998.5910087,0,0,21,2.625
1764843998.595014,0,0,30,3.750
1764843998.599006,0,0,38,4.750
1764843998.6091352,0,0,23,2.875
1764843998.6110306,0,0,21,2.625
1764843998.615008,0,0,29,3.625
1764843998.618989,0,0,38,4.750
1764843998.6230123,0,0,35,4.375
1764843998.627009,0,0,23,2.875
1764843998.6310105,0,0,21,2.625
1764843998.6350036,0,0,28,3.500
1764843998.6389883,0,0,38,4.750
1764843998.6430068,0,0,36,4.500
1764843998.6470091,0,0,23,2.875
1764843998.6510084,0,0,22,2.750
1764843998.6549985,0,0,28,3.500
1764843998.6589835,0,0,38,4.750
1764843998.663008,0,0,36,4.500
1764843998.6670036,0,0,24,3.000
1764843998.671008,0,0,21,2.625
1764843998.675022,0,0,27,3.375
1764843998.679015,0,0,38,4.750
1764843998.6829624,0,0,36,4.500
1764843998.6869457,0,0,24,3.000
1764843998.690945,0,0,20,2.500
1764843998.6949675,0,0,26,3.250
1764843998.6989627,0,0,38,4.750
1764843998.7029605,0,0,37,4.625
1764843998.706945,0,0,25,3.125
1764843998.7109456,0,0,21,2.625
1764843998.714967,0,0,26,3.250
1764843998.718965,0,0,38,4.750
1764843998.7229688,0,0,37,4.625
1764843998.726962,0,0,25,3.125
1764843998.7309608,0,0,21,2.625
1764843998.7349656,0,0,26,3.250
1764843998.738964,0,0,37,4.625
1764843998.7429574,0,0,37,4.625
1764843998.7469456,0,0,26,3.250
1764843998.750944,0,0,21,2.625
1764843998.7549622,0,0,25,3.125
1764843998.7589605,0,0,37,4.625
1764843998.7629683,0,0,37,4.625
1764843998.7669632,0,0,27,3.375
1764843998.7709632,0,0,21,2.625
1764843998.7749631,0,0,25,3.125
1764843998.7789624,0,0,38,4.750
1764843998.7830164,0,0,38,4.750
1764843998.7870066,0,0,27,3.375
1764843998.791005,0,0,21,2.625
1764843998.7950153,0,0,25,3.125
1764843998.799004,0,0,37,4.625
1764843998.8029947,0,0,38,4.750
1764843998.8070753,0,0,27,3.375
1764843998.8110213,0,0,21,2.625
1764843998.8150098,0,0,24,3.000
1764843998.819006,0,0,36,4.500
1764843998.8230085,0,0,37,4.625
1764843998.8270042,0,0,28,3.500
1764843998.8310075,0,0,21,2.625
1764843998.8349993,0,0,24,3.000
1764843998.8389888,0,0,36,4.500
1764843998.8430219,0,0,38,4.750
1764843998.8470106,0,0,29,3.625
1764843998.851004,0,0,21,2.625
1764843998.8550103,0,0,24,3.000
1764843998.8590052,0,0,36,4.500
1764843998.8630087,0,0,37,4.625
1764843998.8670015,0,0,29,3.625
1764843998.871003,0,0,20,2.500
1764843998.8750134,0,0,23,2.875
1764843998.8790114,0,0,36,4.500
1764843998.8829775,0,0,37,4.625
1764843998.8869457,0,0,30,3.750
1764843998.8909419,0,0,21,2.625
1764843998.8949628,0,0,23,2.875
1764843998.8989596,0,0,35,4.375
1764843998.902957,0,0,38,4.750
1764843998.9069417,0,0,31,3.875
1764843998.9109428,0,0,21,2.625
1764843998.9149666,0,0,23,2.875
1764843998.9189599,0,0,38,4.750
1764843998.9229622,0,0,32,4.000
1764843998.9269617,0,0,21,2.625
1764843998.9309645,0,0,23,2.875
1764843998.9349616,0,0,34,4.250
1764843998.9389572,0,0,38,4.750
1764843998.942963,0,0,32,4.000
1764843998.9469607,0,0,21,2.625
1764843998.9509606,0,0,22,2.750
1764843998.9549618,0,0,34,4.250
1764843998.9589572,0,0,38,4.750
1764843998.962959,0,0,32,4.000
1764843998.9669604,0,0,21,2.625
1764843998.970961,0,0,22,2.750
1764843998.974964,0,0,33,4.125
1764843998.9789615,0,0,38,4.750
1764843998.982959,0,0,33,4.125
1764843998.9869554,0,0,21,2.625
1764843998.9909592,0,0,22,2.750
1764843998.9949667,0,0,33,4.125
1764843998.99896,0,0,38,4.750
1764843999.0029552,0,0,33,4.125
1764843999.007024,0,0,21,2.625
1764843999.0109735,0,0,22,2.750
1764843999.0149615,0,0,32,4.000
1764843999.0189447,0,0,38,4.750
1764843999.022961,0,0,33,4.125
1764843999.02696,0,0,21,2.625
1764843999.0309587,0,0,21,2.625
1764843999.034956,0,0,31,3.875
1764843999.0389435,0,0,38,4.750
1764843999.042965,0,0,34,4.250
1764843999.0469565,0,0,22,2.750
1764843999.0509531,0,0,21,2.625
1764843999.0549483,0,0,30,3.750
1764843999.058943,0,0,38,4.750
1764843999.0629609,0,0,35,4.375
1764843999.0669563,0,0,21,2.625
1764843999.0709565,0,0,21,2.625
1764843999.0749655,0,0,30,3.750
1764843999.0789587,0,0,38,4.750
1764843999.082962,0,0,35,4.375
1764843999.0869598,0,0,22,2.750
1764843999.090956,0,0,21,2.625
1764843999.09496,0,0,29,3.625
1764843999.098957,0,0,38,4.750
1764843999.1029646,0,0,35,4.375
1764843999.1069622,0,0,22,2.750
1764843999.1109564,0,0,22,2.750
1764843999.1149514,0,0,29,3.625
1764843999.1189394,0,0,38,4.750
1764843999.1229568,0,0,35,4.375
1764843999.1269584,0,0,23,2.875
1764843999.13096,0,0,22,2.750
1764843999.1349523,0,0,28,3.500
1764843999.1389482,0,0,38,4.750
1764843999.1429698,0,0,36,4.500
1764843999.1469615,0,0,23,2.875
1764843999.1509569,0,0,21,2.625
1764843999.1549609,0,0,29,3.625
1764843999.1589556,0,0,38,4.750
1764843999.1629596,0,0,36,4.500
1764843999.1669595,0,0,24,3.000
1764843999.1709578,0,0,22,2.750
1764843999.1749632,0,0,27,3.375
1764843999.1789587,0,0,38,4.750
1764843999.182958,0,0,37,4.625
1764843999.1869574,0,0,25,3.125
1764843999.1909544,0,0,21,2.625
1764843999.1949499,0,0,27,3.375
1764843999.1989424,0,0,38,4.750
1764843999.2029912,0,0,37,4.625
1764843999.2077713,0,0,25,3.125
1764843999.211045,0,0,21,2.625
1764843999.2149558,0,0,27,3.375
1764843999.2189376,0,0,38,4.750
1764843999.222948,0,0,37,4.625
1764843999.2269394,0,0,25,3.125
1764843999.2309387,0,0,21,2.625
1764843999.2349453,0,0,26,3.250
1764843999.2389386,0,0,38,4.750
1764843999.2429574,0,0,37,4.625
1764843999.2469528,0,0,26,3.250
1764843999.250949,0,0,22,2.750
1764843999.2549546,0,0,25,3.125
1764843999.2589486,0,0,37,4.625
1764843999.2629561,0,0,37,4.625
1764843999.266959,0,0,27,3.375
1764843999.2709522,0,0,21,2.625
1764843999.2749522,0,0,25,3.125
1764843999.2789588,0,0,37,4.625
1764843999.2829604,0,0,37,4.625
1764843999.286954,0,0,27,3.375
1764843999.2909744,0,0,21,2.625
1764843999.294958,0,0,25,3.125
1764843999.2989535,0,0,37,4.625
1764843999.3029475,0,0,37,4.625
1764843999.3069398,0,0,28,3.500
1764843999.3109355,0,0,21,2.625
1764843999.314954,0,0,24,3.000
1764843999.3189478,0,0,36,4.500
1764843999.3229525,0,0,37,4.625
1764843999.326938,0,0,28,3.500
1764843999.330938,0,0,20,2.500
1764843999.3349507,0,0,24,3.000
1764843999.3389454,0,0,36,4.500
1764843999.3429525,0,0,37,4.625
1764843999.346952,0,0,29,3.625
1764843999.3509512,0,0,21,2.625
1764843999.354959,0,0,23,2.875
1764843999.3589444,0,0,36,4.500
1764843999.3629503,0,0,38,4.750
1764843999.3669493,0,0,20,2.500
1764843999.3709488,0,0,23,2.875
1764843999.374949,0,0,35,4.375
1764843999.3789427,0,0,37,4.625
1764843999.382953,0,0,31,3.875
1764843999.3869479,0,0,21,2.625
1764843999.390949,0,0,23,2.875
1764843999.3949444,0,0,35,4.375
1764843999.3989458,0,0,37,4.625
1764843999.4029517,0,0,31,3.875
1764843999.4070184,0,0,21,2.625
1764843999.410959,0,0,23,2.875
1764843999.4149477,0,0,35,4.375
1764843999.4189382,0,0,38,4.750
1764843999.4229517,0,0,32,4.000
1764843999.4269476,0,0,21,2.625
1764843999.4309468,0,0,23,2.875
1764843999.434943,0,0,34,4.250
1764843999.4389348,0,0,38,4.750
1764843999.4429517,0,0,32,4.000
1764843999.4469497,0,0,21,2.625
1764843999.450947,0,0,22,2.750
1764843999.4549475,0,0,34,4.250
1764843999.458949,0,0,37,4.625
1764843999.462954,0,0,32,4.000
1764843999.4669511,0,0,21,2.625
1764843999.4709475,0,0,22,2.750
1764843999.474949,0,0,33,4.125
1764843999.4789429,0,0,38,4.750
1764843999.482957,0,0,33,4.125
1764843999.4869497,0,0,22,2.750
1764843999.4909506,0,0,22,2.750
1764843999.4949477,0,0,32,4.000
1764843999.4989424,0,0,38,4.750
1764843999.5029588,0,0,34,4.250
1764843999.5069528,0,0,21,2.625
1764843999.5109491,0,0,22,2.750
1764843999.5149372,0,0,32,4.000
1764843999.5189326,0,0,38,4.750
1764843999.522947,0,0,34,4.250
1764843999.5269475,0,0,21,2.625
1764843999.5309498,0,0,22,2.750
1764843999.5349445,0,0,31,3.875
1764843999.5389326,0,0,38,4.750
1764843999.542947,0,0,34,4.250
1764843999.546948,0,0,22,2.750
1764843999.5509481,0,0,21,2.625
1764843999.5549362,0,0,30,3.750
1764843999.5589328,0,0,37,4.625
1764843999.56295,0,0,34,4.250
1764843999.566932,0,0,22,2.750
1764843999.5709324,0,0,22,2.750
1764843999.5749454,0,0,31,3.875
1764843999.578946,0,0,38,4.750
1764843999.5829544,0,0,36,4.500
1764843999.5869453,0,0,22,2.750
1764843999.5909438,0,0,22,2.750
1764843999.5949726,0,0,30,3.750
1764843999.5989661,0,0,38,4.750
1764843999.6029613,0,0,35,4.375
1764843999.6117902,0,0,21,2.625
1764843999.61497,0,0,28,3.500
1764843999.6189477,0,0,37,4.625
1764843999.6229484,0,0,36,4.500
1764843999.6269338,0,0,22,2.750
1764843999.6309283,0,0,21,2.625
1764843999.6349518,0,0,28,3.500
1764843999.6389437,0,0,38,4.750
1764843999.6429465,0,0,36,4.500
1764843999.6469333,0,0,23,2.875
1764843999.6509323,0,0,21,2.625
1764843999.654948,0,0,27,3.375
1764843999.6589446,0,0,38,4.750
1764843999.6629524,0,0,36,4.500
1764843999.6669466,0,0,24,3.000
1764843999.6709464,0,0,21,2.625
1764843999.6749465,0,0,28,3.500
1764843999.67894,0,0,37,4.625
1764843999.682953,0,0,36,4.500
1764843999.6869469,0,0,25,3.125
1764843999.690947,0,0,21,2.625
1764843999.6949399,0,0,27,3.375
1764843999.6989293,0,0,38,4.750
1764843999.7029707,0,0,37,4.625
1764843999.7069395,0,0,25,3.125
1764843999.710933,0,0,21,2.625
1764843999.714947,0,0,26,3.250
1764843999.718941,0,0,37,4.625
1764843999.722945,0,0,37,4.625
1764843999.7269428,0,0,25,3.125
1764843999.7309453,0,0,21,2.625
1764843999.7349377,0,0,26,3.250
1764843999.7389314,0,0,37,4.625
1764843999.7429466,0,0,37,4.625
1764843999.7469432,0,0,26,3.250
1764843999.75094,0,0,20,2.500
1764843999.7549422,0,0,25,3.125
1764843999.75894,0,0,37,4.625
1764843999.7629502,0,0,37,4.625
1764843999.7669399,0,0,26,3.250
1764843999.77094,0,0,20,2.500
1764843999.7749395,0,0,25,3.125
1764843999.7789507,0,0,37,4.625
1764843999.78296,0,0,37,4.625
1764843999.7869418,0,0,27,3.375
1764843999.7909415,0,0,21,2.625
1764843999.7949352,0,0,24,3.000
1764843999.7989306,0,0,37,4.625
1764843999.802932,0,0,38,4.750
1764843999.8069284,0,0,28,3.500
1764843999.810994,0,0,21,2.625
1764843999.8149438,0,0,37,4.625
1764843999.8189294,0,0,37,4.625
1764843999.8229454,0,0,28,3.500
1764843999.8269448,0,0,20,2.500
1764843999.8309436,0,0,23,2.875
1764843999.834934,0,0,36,4.500
1764843999.8389256,0,0,37,4.625
1764843999.8429468,0,0,29,3.625
1764843999.846948,0,0,21,2.625
1764843999.8509467,0,0,23,2.875
1764843999.8549461,0,0,36,4.500
1764843999.8589387,0,0,37,4.625
1764843999.8629458,0,0,30,3.750
1764843999.8669455,0,0,21,2.625
1764843999.8709435,0,0,24,3.000
1764843999.874948,0,0,36,4.500
1764843999.8789375,0,0,37,4.625
1764843999.8829496,0,0,30,3.750
1764843999.8869412,0,0,21,2.625
1764843999.890945,0,0,23,2.875
1764843999.894946,0,0,35,4.375
1764843999.89894,0,0,38,4.750
1764843999.9029443,0,0,31,3.875
1764843999.906946,0,0,20,2.500
1764843999.9109488,0,0,22,2.750
1764843999.9149425,0,0,35,4.375
1764843999.9189298,0,0,38,4.750
1764843999.9229445,0,0,31,3.875
1764843999.9269402,0,0,20,2.500
1764843999.9309397,0,0,23,2.875
1764843999.934938,0,0,35,4.375
1764843999.9389286,0,0,38,4.750
1764843999.9429448,0,0,32,4.000
1764843999.9469433,0,0,21,2.625
1764843999.9509385,0,0,22,2.750
1764843999.9549403,0,0,33,4.125
1764843999.9589376,0,0,38,4.750
1764843999.9629474,0,0,33,4.125
1764843999.9669414,0,0,21,2.625
1764843999.9709365,0,0,22,2.750
1764843999.9749389,0,0,33,4.125
1764843999.9789371,0,0,38,4.750
1764843999.9829473,0,0,32,4.000
1764843999.9869409,0,0,21,2.625
1764843999.99094,0,0,22,2.750
1764843999.9949412,0,0,33,4.125
1764843999.998934,0,0,38,4.750
1764844000.0029428,0,0,33,4.125
1764844000.0069406,0,0,22,2.750
1764844000.0110154,0,0,22,2.750
1764844000.0149531,0,0,32,4.000
1764844000.0189257,0,0,38,4.750
1764844000.0229435,0,0,34,4.250
1764844000.0269437,0,0,21,2.625
1764844000.0309424,0,0,22,2.750
1764844000.0349383,0,0,31,3.875
1764844000.0389266,0,0,38,4.750
1764844000.0429432,0,0,35,4.375
1764844000.0469403,0,0,21,2.625
1764844000.0509431,0,0,22,2.750
1764844000.0549355,0,0,30,3.750
1764844000.0589275,0,0,38,4.750
1764844000.0629504,0,0,35,4.375
1764844000.0669458,0,0,22,2.750
1764844000.0709622,0,0,21,2.625
1764844000.0749407,0,0,30,3.750
1764844000.0789285,0,0,38,4.750
1764844000.082947,0,0,35,4.375
1764844000.0869513,0,0,23,2.875
1764844000.0909402,0,0,22,2.750
1764844000.094934,0,0,30,3.750
1764844000.0989273,0,0,38,4.750
1764844000.1029432,0,0,35,4.375
1764844000.1069407,0,0,22,2.750
1764844000.1109366,0,0,21,2.625
1764844000.1149392,0,0,29,3.625
1764844000.1189456,0,0,38,4.750
1764844000.122942,0,0,36,4.500
1764844000.1269493,0,0,24,3.000
1764844000.1309383,0,0,22,2.750
1764844000.1349392,0,0,28,3.500
1764844000.1389349,0,0,38,4.750
1764844000.142951,0,0,36,4.500
1764844000.14694,0,0,24,3.000
1764844000.1509373,0,0,21,2.625
1764844000.1549385,0,0,28,3.500
1764844000.1589422,0,0,38,4.750
1764844000.162943,0,0,36,4.500
1764844000.1669395,0,0,24,3.000
1764844000.170938,0,0,21,2.625
1764844000.1749353,0,0,27,3.375
1764844000.1789312,0,0,38,4.750
1764844000.1829457,0,0,37,4.625
1764844000.1869392,0,0,25,3.125
1764844000.1909368,0,0,21,2.625
1764844000.19494,0,0,26,3.250
1764844000.1989338,0,0,38,4.750
1764844000.206627,0,0,37,4.625
1764844000.208706,0,0,21,2.625
1764844000.2110274,0,0,21,2.625
1764844000.2149565,0,0,25,3.125
1764844000.2189276,0,0,38,4.750
1764844000.2229311,0,0,37,4.625
1764844000.2269254,0,0,25,3.125
1764844000.2309253,0,0,21,2.625
1764844000.234931,0,0,26,3.250
1764844000.2389238,0,0,38,4.750
1764844000.2429404,0,0,37,4.625
1764844000.2469387,0,0,26,3.250
1764844000.2509387,0,0,21,2.625
1764844000.254942,0,0,26,3.250
1764844000.2589374,0,0,38,4.750
1764844000.2629466,0,0,38,4.750
