Timestamp,LO_plus,LO_minus,Raw_ADC,Voltage_mV
1764840137.2708313,0,0,2861,357.625
1764840137.2726254,1,1,2861,357.625
1764840137.2743306,1,1,3056,382.000
1764840137.2769861,0,0,3056,382.000
1764840137.2810614,0,0,-2177,-272.125
1764840137.2850049,0,0,-645,-80.625
1764840137.2889876,0,0,1428,178.500
1764840137.2929895,1,1,2686,335.750
1764840137.2969875,0,0,1283,160.375
1764840137.3010452,0,0,-2041,-255.125
1764840137.3053467,0,0,-558,-69.750
1764840137.3106227,0,0,1455,181.875
1764840137.313019,1,1,2666,333.250
1764840137.3169887,0,0,1403,175.375
1764840137.3209949,0,0,-1998,-249.750
1764840137.3249953,0,0,-672,-84.000
1764840137.3289936,0,0,1321,165.125
1764840137.3329988,1,1,2569,321.125
1764840137.336996,0,0,1347,168.375
1764840137.341019,0,0,-2266,-283.250
1764840137.3450334,0,0,-1075,-134.375
1764840137.3489997,0,0,1147,143.375
1764840137.3529954,1,1,2587,323.375
1764840137.3569853,0,0,1678,209.750
1764840137.3610501,0,0,-1779,-222.375
1764840137.3650033,0,0,-373,-46.625
1764840137.3689964,0,0,1576,197.000
1764840137.372997,1,1,2660,332.500
1764840137.376995,0,0,1713,214.125
1764840137.3810494,0,0,-1821,-227.625
1764840137.3849945,0,0,-398,-49.750
1764840137.3889852,0,0,1599,199.875
1764840137.3929977,1,1,2665,333.125
1764840137.3969958,0,0,1770,221.250
1764840137.4009948,0,0,-1988,-248.500
1764840137.4049864,0,0,-810,-101.250
1764840137.4089854,0,0,1280,160.000
1764840137.4129999,1,1,2526,315.750
1764840137.4170008,0,0,1908,238.500
1764840137.4210014,0,0,-1948,-243.500
1764840137.425043,0,0,-1014,-126.750
1764840137.4290013,0,0,1077,134.625
1764840137.4329932,1,1,2416,302.000
1764840137.4369843,0,0,1950,243.750
1764840137.4409971,0,0,-1982,-247.750
1764840137.444995,0,0,-1078,-134.750
1764840137.4489958,0,0,1079,134.875
1764840137.4530516,1,1,2435,304.375
1764840137.456995,0,0,2100,262.500
1764840137.461,0,0,-1538,-192.250
1764840137.465067,0,0,-507,-63.375
1764840137.4690056,0,0,1443,180.375
1764840137.4729931,1,1,2498,312.250
1764840137.476983,0,0,2075,259.375
1764840137.4810202,0,0,-1903,-237.875
1764840137.4849885,0,0,-1291,-161.375
1764840137.4889867,0,0,837,104.625
1764840137.4930491,1,1,2264,283.000
1764840137.497004,0,0,2164,270.500
1764840137.5009997,0,0,-1781,-222.625
1764840137.5049872,0,0,-1101,-137.625
1764840137.5089836,0,0,1043,130.375
1764840137.513047,1,1,2358,294.750
1764840137.5170004,0,0,2246,280.750
1764840137.520994,0,0,-1579,-197.375
1764840137.524995,0,0,-706,-88.250
1764840137.5289946,0,0,1410,176.250
1764840137.532992,1,1,2507,313.375
1764840137.5369842,0,0,2273,284.125
1764840137.5409918,0,0,-1881,-235.125
1764840137.5449917,0,0,-1712,-214.000
1764840137.5489905,0,0,512,64.000
1764840137.553,1,1,2133,266.625
1764840137.5569868,0,0,2263,282.875
1764840137.5609949,0,0,-1012,-126.500
1764840137.5650418,0,0,-1383,-172.875
1764840137.5690186,0,0,-836,-104.500
1764840137.5729973,1,1,1916,239.500
1764840137.576985,0,0,3020,377.500
1764840137.580994,0,0,-931,-116.375
1764840137.5849986,0,0,-1524,-190.500
1764840137.588991,0,0,-476,-59.500
1764840137.592988,1,1,2197,274.625
1764840137.596982,0,0,3253,406.625
1764840137.6009989,0,0,-912,-114.000
1764840137.604991,0,0,-1170,-146.250
1764840137.6089897,0,0,-1102,-137.750
1764840137.6129994,1,1,1999,249.875
1764840137.6170456,0,0,3670,458.750
1764840137.6210022,0,0,-738,-92.250
1764840137.6249838,0,0,-892,-111.500
1764840137.62898,0,0,-1479,-184.875
1764840137.6329927,1,1,1777,222.125
1764840137.6369927,0,0,3955,494.375
1764840137.6409912,0,0,-581,-72.625
1764840137.6450436,0,0,-873,-109.125
1764840137.649,0,0,-1497,-187.125
1764840137.6529925,1,1,1858,232.250
1764840137.6569822,0,0,4294,536.750
1764840137.6609926,0,0,-314,-39.250
1764840137.665055,0,0,-1030,-128.750
1764840137.6690006,0,0,-1256,-157.000
1764840137.6730433,1,1,2211,276.375
1764840137.6769922,0,0,4658,582.250
1764840137.680997,0,0,-113,-14.125
1764840137.6849902,0,0,-1203,-150.375
1764840137.6889913,0,0,-916,-114.500
1764840137.693,1,1,2588,323.500
1764840137.6969862,0,0,4941,617.625
1764840137.7010453,0,0,144,18.000
1764840137.7050207,0,0,-1117,-139.625
1764840137.7089915,0,0,-1075,-134.375
1764840137.7129886,1,1,2477,309.625
1764840137.7169812,0,0,5037,629.625
1764840137.7209957,0,0,351,43.875
1764840137.7249918,0,0,-1476,-184.500
1764840137.7289891,0,0,-351,-43.875
1764840137.732987,1,1,3080,385.000
1764840137.736981,0,0,5273,659.125
1764840137.741033,0,0,564,70.500
1764840137.7450223,0,0,-1339,-167.375
1764840137.7489936,0,0,-654,-81.750
1764840137.7529895,1,1,2856,357.000
1764840137.756981,0,0,5261,657.625
1764840137.760994,0,0,1095,136.875
1764840137.7649906,0,0,-2249,-281.125
1764840137.769121,0,0,-12,-1.500
1764840137.773101,1,1,3241,405.125
1764840137.777087,0,0,5300,662.500
1764840137.7811096,0,0,1422,177.750
1764840137.7851048,0,0,-1953,-244.125
1764840137.7891028,0,0,408,51.000
1764840137.7931037,1,1,3405,425.625
1764840137.7970982,0,0,5251,656.375
1764840137.8010979,0,0,1485,185.625
1764840137.805106,0,0,-1945,-243.125
1764840137.8091586,0,0,441,55.125
1764840137.8131046,1,1,3405,425.625
1764840137.8170838,0,0,5207,650.875
1764840137.8211043,0,0,1625,203.125
1764840137.8251255,0,0,-2116,-264.500
1764840137.8291025,0,0,14,1.750
1764840137.833093,1,1,3055,381.875
1764840137.8370802,0,0,5040,630.000
1764840137.8411036,0,0,1642,205.250
1764840137.8450975,0,0,-2277,-284.625
1764840137.8490992,0,0,-363,-45.375
1764840137.853104,1,1,2814,351.750
1764840137.857099,0,0,4964,620.500
1764840137.8611035,0,0,1792,224.000
1764840137.8651757,0,0,-2252,-281.500
1764840137.8691862,0,0,-543,-67.875
1764840137.8731587,1,1,2688,336.000
1764840137.8770967,0,0,4937,617.125
1764840137.8811035,0,0,1680,210.000
1764840137.8851,0,0,-956,-119.500
1764840137.889101,0,0,-1639,-204.875
1764840137.8931074,1,1,1487,185.875
1764840137.8970969,0,0,4594,574.250
1764840137.9010997,0,0,2126,265.750
1764840137.9050982,0,0,-1113,-139.125
1764840137.9090972,0,0,-1573,-196.625
1764840137.9130988,1,1,1755,219.375
1764840137.9170842,0,0,4783,597.875
1764840137.9211037,0,0,-1533,-191.625
1764840137.9250977,0,0,-1170,-146.250
1764840137.9290993,0,0,2278,284.750
1764840137.9331129,1,1,5002,625.250
1764840137.9371588,0,0,2631,328.875
1764840137.9411116,0,0,-1188,-148.500
1764840137.9450808,0,0,-1583,-197.875
1764840137.9490802,0,0,1738,217.250
1764840137.953102,1,1,4813,601.625
1764840137.9571009,0,0,2883,360.375
1764840137.961162,0,0,-1140,-142.500
1764840137.9651234,0,0,-1656,-207.000
1764840137.9691355,0,0,1375,171.875
1764840137.9730988,1,1,4686,585.750
1764840137.9770977,0,0,3116,389.500
1764840137.981114,0,0,-1147,-143.375
1764840137.9851074,0,0,-1661,-207.625
1764840137.989097,0,0,1325,165.625
1764840137.993147,1,1,4706,588.250
1764840137.9971063,0,0,3386,423.250
1764840138.0011044,0,0,-1211,-151.375
1764840138.0050838,0,0,-1663,-207.875
1764840138.0090806,0,0,1099,137.375
1764840138.0130997,1,1,4618,577.250
1764840138.017098,0,0,3658,457.250
1764840138.021103,0,0,-1219,-152.375
1764840138.0250835,0,0,-1669,-208.625
1764840138.02908,0,0,1324,165.500
1764840138.0331125,1,1,4763,595.375
1764840138.0370991,0,0,3916,489.500
1764840138.0411184,0,0,-1213,-151.625
1764840138.0451546,0,0,-1670,-208.750
1764840138.049125,0,0,1033,129.125
1764840138.0530972,1,1,4616,577.000
1764840138.0570927,0,0,4098,512.250
1764840138.0611353,0,0,-1236,-154.500
1764840138.0651772,0,0,-1677,-209.625
1764840138.0691476,0,0,1301,162.625
1764840138.0731106,1,1,4783,597.875
1764840138.0771072,0,0,4349,543.625
1764840138.0811229,0,0,-1118,-139.750
1764840138.0850918,0,0,-1601,-200.125
1764840138.0890954,0,0,451,56.375
1764840138.093153,1,1,4272,534.000
1764840138.0971227,0,0,4579,572.375
1764840138.1010985,0,0,-1250,-156.250
1764840138.1051013,0,0,-1732,-216.500
1764840138.1090991,0,0,1417,177.125
1764840138.113103,1,1,4850,606.250
1764840138.1170807,0,0,4861,607.625
1764840138.1211,0,0,-1085,-135.625
1764840138.1251004,0,0,-1680,-210.000
1764840138.129099,0,0,841,105.125
1764840138.133091,1,1,4508,563.500
1764840138.1370785,0,0,4934,616.750
1764840138.1410975,0,0,-1029,-128.625
1764840138.1450953,0,0,-1681,-210.125
1764840138.1490965,0,0,809,101.125
1764840138.1531005,1,1,4487,560.875
1764840138.1570933,0,0,5160,645.000
1764840138.1611032,0,0,-1012,-126.500
1764840138.1650949,0,0,-1724,-215.500
1764840138.169098,0,0,917,114.625
1764840138.1731224,1,1,4534,566.750
1764840138.1771467,0,0,5358,669.750
1764840138.1811662,0,0,-1099,-137.375
1764840138.1850944,0,0,-1494,-186.750
1764840138.1890814,0,0,1917,239.625
1764840138.1931002,1,1,5035,629.375
1764840138.1970994,0,0,5527,690.875
1764840138.201127,0,0,-960,-120.000
1764840138.2050834,0,0,-1390,-173.750
1764840138.2090755,0,0,1998,249.750
1764840138.2131002,1,1,5010,626.250
1764840138.217095,0,0,5561,695.125
1764840138.22115,0,0,-885,-110.625
1764840138.2251217,0,0,-1454,-181.750
1764840138.2290971,0,0,1908,238.500
1764840138.2330863,1,1,4906,613.250
1764840138.2370796,0,0,5476,684.500
1764840138.2411146,0,0,-732,-91.500
1764840138.245465,0,0,-1635,-204.375
1764840138.2492003,0,0,475,59.375
1764840138.253115,1,1,4083,510.375
1764840138.2570934,0,0,5458,682.250
1764840138.2611434,0,0,-618,-77.250
1764840138.2709045,0,0,-167,-20.875
1764840138.2731054,1,1,3630,453.750
1764840138.2770805,0,0,5504,688.000
1764840138.2811427,0,0,-597,-74.625
1764840138.285106,0,0,-1897,-237.125
1764840138.289078,0,0,1252,156.500
1764840138.2930882,1,1,4535,566.875
1764840138.2970812,0,0,5808,726.000
1764840138.3010828,0,0,-347,-43.375
1764840138.305097,0,0,-2018,-252.250
1764840138.3090951,0,0,944,118.000
1764840138.3131807,1,1,4283,535.375
1764840138.317107,0,0,5771,721.375
1764840138.3210988,0,0,98,12.250
1764840138.3250954,0,0,-1136,-142.000
1764840138.329093,0,0,2040,255.000
1764840138.3331575,1,1,4800,600.000
1764840138.3371012,0,0,5791,723.875
1764840138.3410974,0,0,-240,-30.000
1764840138.345094,0,0,-2070,-258.750
1764840138.3490937,0,0,689,86.125
1764840138.353095,1,1,4033,504.125
1764840138.3570907,0,0,5653,706.625
1764840138.361099,0,0,-149,-18.625
1764840138.3650956,0,0,-1569,-196.125
1764840138.3690934,0,0,73,9.125
1764840138.3730936,1,1,3641,455.125
1764840138.3770924,0,0,5639,704.875
1764840138.3811176,0,0,41,5.125
1764840138.3851366,0,0,-1269,-158.625
1764840138.3891203,0,0,-726,-90.750
1764840138.3930926,1,1,3007,375.875
1764840138.397079,0,0,5534,691.750
1764840138.401095,0,0,454,56.750
1764840138.4050963,0,0,-2160,-270.000
1764840138.4090967,0,0,201,25.125
1764840138.413089,1,1,3687,460.875
1764840138.4170783,0,0,5748,718.500
1764840138.4211767,0,0,693,86.625
1764840138.4250946,0,0,-2048,-256.000
1764840138.4290795,0,0,758,94.750
1764840138.4331021,1,1,4023,502.875
1764840138.4370942,0,0,5816,727.000
1764840138.4411004,0,0,792,99.000
1764840138.445079,0,0,-2200,-275.000
1764840138.4490788,0,0,343,42.875
1764840138.453159,1,1,3710,463.750
1764840138.457105,0,0,5704,713.000
1764840138.461094,0,0,878,109.750
1764840138.4650939,0,0,-1750,-218.750
1764840138.4691644,0,0,-300,-37.500
1764840138.4731374,1,1,3247,405.875
1764840138.4770806,0,0,5585,698.125
1764840138.4810944,0,0,1142,142.750
1764840138.4850924,0,0,-2152,-269.000
1764840138.4890933,0,0,-121,-15.125
1764840138.4931476,1,1,3356,419.500
1764840138.49709,0,0,5595,699.375
1764840138.5010967,0,0,1052,131.500
1764840138.5050936,0,0,-1332,-166.500
1764840138.5090926,0,0,-819,-102.375
1764840138.5131488,1,1,2824,353.000
1764840138.5170887,0,0,5487,685.875
1764840138.521098,0,0,1219,152.375
1764840138.5250928,0,0,-951,-118.875
1764840138.5290914,0,0,-1566,-195.750
1764840138.5330954,1,1,1922,240.250
1764840138.5370905,0,0,5180,647.500
1764840138.5410936,0,0,1553,194.125
1764840138.54509,0,0,-1194,-149.250
1764840138.5490887,0,0,-1224,-153.000
1764840138.5531447,1,1,2446,305.750
1764840138.5570889,0,0,5469,683.625
1764840138.5610983,0,0,1853,231.625
1764840138.5650918,0,0,-1074,-134.250
1764840138.5690901,0,0,-1596,-199.500
1764840138.5731196,1,1,5251,656.375
1764840138.5770779,0,0,1994,249.250
1764840138.581095,0,0,-1083,-135.375
1764840138.5850916,0,0,-1656,-207.000
1764840138.5890856,0,0,888,111.000
1764840138.5930877,1,1,4762,595.250
1764840138.5970902,0,0,2402,300.250
1764840138.6011002,0,0,-1283,-160.375
1764840138.6050906,0,0,-1486,-185.750
1764840138.6090872,0,0,2160,270.000
1764840138.613096,1,1,5513,689.125
1764840138.6171482,0,0,2865,358.125
1764840138.6211057,0,0,-1516,-189.500
1764840138.6250737,0,0,-1341,-167.625
1764840138.6290731,0,0,2355,294.375
1764840138.6330936,1,1,5604,700.500
1764840138.6370876,0,0,3103,387.875
1764840138.6411471,0,0,-1261,-157.625
1764840138.645088,0,0,-1647,-205.875
1764840138.6490748,0,0,1679,209.875
1764840138.653092,1,1,5267,658.375
1764840138.657087,0,0,3319,414.875
1764840138.6611068,0,0,-1419,-177.375
1764840138.6650763,0,0,-1572,-196.500
1764840138.669159,0,0,2005,250.625
1764840138.6732006,1,1,5438,679.750
1764840138.6771102,0,0,3644,455.500
1764840138.681093,0,0,-1364,-170.500
1764840138.6850765,0,0,-1637,-204.625
1764840138.6890755,0,0,1807,225.875
1764840138.693102,1,1,5322,665.250
1764840138.6970875,0,0,3767,470.875
1764840138.7011428,0,0,-1315,-164.375
1764840138.7051222,0,0,-1678,-209.750
1764840138.7090907,0,0,1474,184.250
1764840138.7130876,1,1,5143,642.875
1764840138.7170732,0,0,3948,493.500
1764840138.7210884,0,0,-1273,-159.125
1764840138.7250903,0,0,-1675,-209.375
1764840138.7290897,0,0,1067,133.375
1764840138.7330818,1,1,4903,612.875
1764840138.7370691,0,0,4124,515.500
1764840138.741133,0,0,-1280,-160.000
1764840138.7450862,0,0,-1694,-211.750
1764840138.749075,0,0,1276,159.500
1764840138.753093,1,1,5034,629.250
1764840138.7570915,0,0,4395,549.375
1764840138.7610905,0,0,-1232,-154.000
1764840138.7650738,0,0,-1702,-212.750
1764840138.7690732,0,0,1282,160.250
1764840138.773131,1,1,5029,628.625
1764840138.777092,0,0,4590,573.750
1764840138.7810895,0,0,-1262,-157.750
1764840138.7851284,0,0,-1717,-214.625
1764840138.7891161,0,0,1246,155.750
1764840138.7930865,1,1,4994,624.250
1764840138.797073,0,0,4788,598.500
1764840138.8011382,0,0,-1152,-144.000
1764840138.8050997,0,0,-1692,-211.500
1764840138.809088,0,0,883,110.375
1764840138.8130906,1,1,4751,593.875
1764840138.8170865,0,0,4917,614.625
1764840138.8210914,0,0,-1198,-149.750
1764840138.8250828,0,0,-1733,-216.625
1764840138.829082,0,0,1115,139.375
1764840138.8331487,1,1,4888,611.000
1764840138.837096,0,0,5153,644.125
1764840138.841093,0,0,-1264,-158.000
1764840138.8450854,0,0,-1823,-227.875
1764840138.849083,0,0,1374,171.750
1764840138.853091,1,1,5017,627.125
1764840138.8570888,0,0,5323,665.375
1764840138.86109,0,0,-1046,-130.750
1764840138.8650706,0,0,-1686,-210.750
1764840138.869154,0,0,700,87.500
1764840138.8730972,1,1,4572,571.500
1764840138.8771448,0,0,5375,671.875
1764840138.881101,0,0,-1171,-146.375
1764840138.8850732,0,0,-1892,-236.500
1764840138.889071,0,0,1292,161.500
1764840138.8931446,1,1,4920,615.000
1764840138.8970985,0,0,5588,698.500
1764840138.901093,0,0,-1051,-131.375
1764840138.9050725,0,0,-1881,-235.125
1764840138.9090683,0,0,1115,139.375
1764840138.9130864,1,1,4779,597.375
1764840138.9170866,0,0,5645,705.625
1764840138.9210904,0,0,-812,-101.500
1764840138.9250722,0,0,-1646,-205.750
1764840138.929065,0,0,438,54.750
1764840138.9330926,1,1,4312,539.000
1764840138.9371269,0,0,5659,707.375
1764840138.941107,0,0,-825,-103.125
1764840138.9450724,0,0,-1786,-223.250
1764840138.949069,0,0,730,91.250
1764840138.9530883,1,1,4493,561.625
1764840138.9570835,0,0,5810,726.250
1764840138.9611118,0,0,-658,-82.250
1764840138.9651294,0,0,-1644,-205.500
1764840138.969094,0,0,321,40.125
1764840138.9730804,1,1,4189,523.625
1764840138.97711,0,0,5840,730.000
1764840138.981136,0,0,-563,-70.375
1764840138.9851012,0,0,-1633,-204.125
1764840138.9890828,0,0,234,29.250
1764840138.9930866,1,1,4109,513.625
1764840138.997084,0,0,5923,740.375
1764840139.0010839,0,0,-436,-54.500
1764840139.0050714,0,0,-1636,-204.500
1764840139.0090706,0,0,162,20.250
1764840139.0130885,1,1,4038,504.750
1764840139.0170822,0,0,5986,748.250
1764840139.0210838,0,0,-281,-35.125
1764840139.025085,0,0,-1557,-194.625
1764840139.029084,0,0,-58,-7.250
1764840139.0330892,1,1,3855,481.875
1764840139.0371335,0,0,6009,751.125
1764840139.041092,0,0,-122,-15.250
1764840139.0450685,0,0,-1729,-216.125
1764840139.04907,0,0,107,13.375
1764840139.053073,1,1,3964,495.500
1764840139.057069,0,0,6110,763.750
1764840139.0610673,0,0,46,5.750
1764840139.0650675,0,0,-1421,-177.625
1764840139.0691574,0,0,-519,-64.875
1764840139.0730917,1,1,3437,429.625
1764840139.077108,0,0,5999,749.875
1764840139.081071,0,0,242,30.250
1764840139.0850675,0,0,-1540,-192.500
1764840139.0890682,0,0,-395,-49.375
1764840139.0931516,1,1,3536,442.000
1764840139.0971007,0,0,6116,764.500
1764840139.1010914,0,0,559,69.875
1764840139.105068,0,0,-1774,-221.750
1764840139.1090658,0,0,-309,-38.625
1764840139.1130958,1,1,3591,448.875
1764840139.1170893,0,0,6165,770.625
1764840139.1210878,0,0,710,88.750
1764840139.1250684,0,0,-1580,-197.500
1764840139.1290658,0,0,-630,-78.750
1764840139.133148,1,1,3294,411.750
1764840139.1370933,0,0,6097,762.125
1764840139.1410909,0,0,976,122.000
1764840139.1450686,0,0,-2060,-257.500
1764840139.1490664,0,0,-248,-31.000
1764840139.1530848,1,1,3610,451.250
1764840139.1570857,0,0,6224,778.000
1764840139.161102,0,0,1085,135.625
1764840139.1651556,0,0,-1560,-195.000
1764840139.1690953,0,0,-818,-102.250
1764840139.1730716,1,1,3084,385.500
1764840139.177102,0,0,6049,756.125
1764840139.18109,0,0,1321,165.125
1764840139.1850863,0,0,-1677,-209.625
1764840139.189083,0,0,-783,-97.875
1764840139.1931396,1,1,3106,388.250
1764840139.197083,0,0,6079,759.875
1764840139.2010963,0,0,1588,198.500
1764840139.205086,0,0,-1664,-208.000
1764840139.209083,0,0,-904,-113.000
1764840139.2130754,1,1,2967,370.875
1764840139.2170773,0,0,6028,753.500
1764840139.221085,0,0,-1539,-192.375
1764840139.225082,0,0,-1111,-138.875
1764840139.22908,0,0,2743,342.875
1764840139.233088,1,1,5953,744.125
1764840139.237225,0,0,1966,245.750
1764840139.241122,0,0,-1283,-160.375
1764840139.2454667,0,0,-1507,-188.375
1764840139.2491887,0,0,2211,276.375
1764840139.2531781,1,1,5722,715.250
1764840139.2570934,0,0,2096,262.000
1764840139.261086,0,0,-1180,-147.500
1764840139.265082,0,0,-1678,-209.750
1764840139.2744575,1,1,5287,660.875
1764840139.277097,0,0,2555,319.375
1764840139.2810926,0,0,-2214,-276.750
1764840139.285084,0,0,-597,-74.625
1764840139.2890832,0,0,3245,405.625
1764840139.2931612,1,1,6231,778.875
1764840139.2970948,0,0,2894,361.750
1764840139.301089,0,0,-2158,-269.750
1764840139.305084,0,0,-904,-113.000
1764840139.3090844,0,0,2931,366.375
1764840139.3131676,1,1,6066,758.250
1764840139.3170948,0,0,3023,377.875
1764840139.321086,0,0,-1521,-190.125
1764840139.3250813,0,0,-1452,-181.500
1764840139.3290799,0,0,2273,284.125
1764840139.333081,1,1,5739,717.375
1764840139.3370779,0,0,3187,398.375
1764840139.3410807,0,0,-1542,-192.750
1764840139.3450785,0,0,-1467,-183.375
1764840139.3491178,0,0,2237,279.625
1764840139.3531156,1,1,5701,712.625
1764840139.3570826,0,0,3377,422.125
1764840139.3610785,0,0,-1514,-189.250
1764840139.3650794,0,0,-1512,-189.000
1764840139.3690825,0,0,2162,270.250
1764840139.373152,1,1,5656,707.000
1764840139.3770947,0,0,3608,451.000
1764840139.3811224,0,0,-1382,-172.750
1764840139.385077,0,0,-1642,-205.250
1764840139.3890777,0,0,1876,234.500
1764840139.393083,1,1,5487,685.875
1764840139.3970826,0,0,3840,480.000
1764840139.4010785,0,0,-1986,-248.250
1764840139.4050648,0,0,-1205,-150.625
1764840139.4090648,0,0,2534,316.750
1764840139.4131558,1,1,5784,723.000
1764840139.4170983,0,0,4003,500.375
1764840139.4210868,0,0,-1386,-173.250
1764840139.425062,0,0,-1684,-210.500
1764840139.4290624,0,0,1677,209.625
1764840139.4330828,1,1,5319,664.875
1764840139.4370825,0,0,4145,518.125
1764840139.4410803,0,0,-1401,-175.125
1764840139.4450624,0,0,-1684,-210.500
1764840139.4490626,0,0,1765,220.625
1764840139.453082,1,1,5347,668.375
1764840139.457085,0,0,4319,539.875
1764840139.4610863,0,0,-1346,-168.250
1764840139.4650786,0,0,-1710,-213.750
1764840139.4690778,0,0,1565,195.625
1764840139.4731612,1,1,5217,652.125
1764840139.4770935,0,0,4494,561.750
1764840139.4811077,0,0,-1325,-165.625
1764840139.485088,0,0,-1726,-215.750
1764840139.4890795,0,0,1529,191.125
1764840139.4930785,1,1,5176,647.000
1764840139.4970813,0,0,4680,585.000
1764840139.501083,0,0,-1270,-158.750
1764840139.5050645,0,0,-1726,-215.750
1764840139.5090616,0,0,1281,160.125
1764840139.5130794,1,1,5013,626.625
1764840139.5170798,0,0,4848,606.000
1764840139.5210886,0,0,-1247,-155.875
1764840139.5250823,0,0,-1751,-218.875
1764840139.529077,0,0,1308,163.500
1764840139.533084,1,1,5007,625.875
1764840139.5370808,0,0,5020,627.500
1764840139.5410864,0,0,-1193,-149.125
1764840139.5450933,0,0,-1749,-218.625
1764840139.5490854,0,0,1176,147.000
1764840139.5530622,1,1,4905,613.125
1764840139.5570626,0,0,5171,646.375
1764840139.5610833,0,0,-1199,-149.875
1764840139.5650818,0,0,-1798,-224.750
1764840139.5690804,0,0,1263,157.875
1764840139.5730717,1,1,4933,616.625
1764840139.5770626,0,0,5311,663.875
1764840139.5810807,0,0,-1018,-127.250
1764840139.5850856,0,0,-1720,-215.000
1764840139.5890825,0,0,835,104.375
1764840139.5930865,1,1,4642,580.250
1764840139.597078,0,0,5395,674.375
1764840139.6010828,0,0,-1060,-132.500
1764840139.6050773,0,0,-1806,-225.750
1764840139.6090782,0,0,1051,131.375
1764840139.6130836,1,1,4756,594.500
1764840139.6170743,0,0,5539,692.375
1764840139.6210809,0,0,-968,-121.000
1764840139.625077,0,0,-1766,-220.750
1764840139.6290765,0,0,849,106.125
1764840139.63308,1,1,4605,575.625
1764840139.63708,0,0,5613,701.625
1764840139.641084,0,0,-786,-98.250
1764840139.6450768,0,0,-1629,-203.625
1764840139.6490765,0,0,374,46.750
1764840139.6530824,1,1,4264,533.000
1764840139.6570783,0,0,5679,709.875
1764840139.66108,0,0,-797,-99.625
1764840139.665073,0,0,-1783,-222.875
1764840139.6690764,0,0,692,86.500
1764840139.673163,1,1,4466,558.250
1764840139.677092,0,0,5830,728.750
1764840139.681119,0,0,-662,-82.750
1764840139.6850603,0,0,-1686,-210.750
1764840139.6890626,0,0,405,50.625
1764840139.6930783,1,1,4246,530.750
1764840139.6970742,0,0,5871,733.875
1764840139.7010796,0,0,-545,-68.125
1764840139.7050588,0,0,-1646,-205.750
1764840139.7090576,0,0,247,30.875
1764840139.7130787,1,1,4113,514.125
1764840139.7170796,0,0,5917,739.625
1764840139.7210824,0,0,-419,-52.375
1764840139.7250762,0,0,-1601,-200.125
1764840139.7290752,0,0,80,10.000
1764840139.73308,1,1,3976,497.000
1764840139.7370758,0,0,5972,746.500
1764840139.7410836,0,0,-277,-34.625
1764840139.7450733,0,0,-1593,-199.125
1764840139.7490726,0,0,-12,-1.500
1764840139.7530787,1,1,3890,486.250
1764840139.757077,0,0,6024,753.000
1764840139.7610776,0,0,-130,-16.250
1764840139.7650733,0,0,-1496,-187.000
1764840139.7690744,0,0,-298,-37.250
1764840139.7730842,1,1,3641,455.125
1764840139.7770872,0,0,6020,752.500
1764840139.781115,0,0,71,8.875
1764840139.7850604,0,0,-1629,-203.625
1764840139.7890575,0,0,-202,-25.250
1764840139.793075,1,1,3709,463.625
1764840139.7970767,0,0,6113,764.125
1764840139.801079,0,0,303,37.875
1764840139.8050601,0,0,-1634,-204.250
1764840139.8090565,0,0,-297,-37.125
1764840139.813076,1,1,3617,452.125
1764840139.8170748,0,0,6144,768.000
1764840139.821083,0,0,611,76.375
1764840139.8250737,0,0,-2226,-278.250
1764840139.829073,0,0,303,37.875
1764840139.833078,1,1,4054,506.750
1764840139.8370728,0,0,6294,786.750
1764840139.841073,0,0,662,82.750
1764840139.845076,0,0,-1379,-172.375
1764840139.849073,0,0,-878,-109.750
1764840139.8530648,1,1,3044,380.500
1764840139.8570578,0,0,5976,747.000
1764840139.8610778,0,0,913,114.125
1764840139.8650715,0,0,-1769,-221.125
1764840139.869073,0,0,-479,-59.875
1764840139.8731723,1,1,6153,769.125
1764840139.877088,0,0,1119,139.875
1764840139.8810785,0,0,-1832,-229.000
1764840139.8850987,0,0,-496,-62.000
1764840139.8890622,0,0,3382,422.750
1764840139.8930764,1,1,6163,770.375
1764840139.8970737,0,0,1161,145.125
1764840139.9010768,0,0,-1062,-132.750
1764840139.9050589,0,0,-1671,-208.875
1764840139.9090595,0,0,1627,203.375
1764840139.9130788,1,1,5369,671.125
1764840139.9170737,0,0,1529,191.125
1764840139.9210842,0,0,-1996,-249.500
1764840139.9250772,0,0,-602,-75.250
1764840139.929078,0,0,3286,410.750
1764840139.9330776,1,1,6217,777.125
1764840139.9370728,0,0,1882,235.250
1764840139.9410784,0,0,-1567,-195.875
1764840139.9450715,0,0,-1143,-142.875
1764840139.949076,0,0,2718,339.750
1764840139.953081,1,1,5979,747.375
1764840139.9570754,0,0,2119,264.875
1764840139.9610746,0,0,-1631,-203.875
1764840139.9650726,0,0,-1111,-138.875
1764840139.9690757,0,0,2744,343.000
1764840139.9730785,1,1,5993,749.125
1764840139.9770744,0,0,2346,293.250
1764840139.981078,0,0,-1707,-213.375
1764840139.9850864,0,0,-1134,-141.750
1764840139.9890747,0,0,2707,338.375
1764840139.9930837,1,1,5974,746.750
1764840139.9970782,0,0,2559,319.875
1764840140.0010743,0,0,-1810,-226.250
1764840140.0050557,0,0,-1090,-136.250
1764840140.0090547,0,0,2741,342.625
1764840140.013075,1,1,5976,747.000
1764840140.0170743,0,0,2753,344.125
1764840140.0210743,0,0,-1392,-174.000
1764840140.0250552,0,0,-1549,-193.625
1764840140.029055,0,0,2118,264.750
1764840140.0330765,1,1,5669,708.625
1764840140.037074,0,0,2946,368.250
1764840140.041078,0,0,-1458,-182.250
1764840140.0450702,0,0,-1526,-190.750
1764840140.0490704,0,0,2157,269.625
1764840140.05306,1,1,5687,710.875
1764840140.057053,0,0,3202,400.250
1764840140.0610714,0,0,-1440,-180.000
1764840140.06507,0,0,-1607,-200.875
1764840140.0690668,0,0,1985,248.125
1764840140.0731604,1,1,5593,699.125
1764840140.077087,0,0,3403,425.375
1764840140.0810807,0,0,-1449,-181.125
1764840140.0850923,0,0,-1590,-198.750
1764840140.0890524,0,0,2034,254.250
1764840140.0930717,1,1,5612,701.500
1764840140.0970724,0,0,3629,453.625
1764840140.1010768,0,0,-1383,-172.875
1764840140.1050572,0,0,-1674,-209.250
1764840140.1090522,0,0,1719,214.875
1764840140.1130722,1,1,5426,678.250
1764840140.1170702,0,0,3824,478.000
1764840140.1210818,0,0,-1407,-175.875
1764840140.1250718,0,0,-1669,-208.625
1764840140.129088,0,0,1810,226.250
1764840140.133088,1,1,5465,683.125
1764840140.1370747,0,0,4043,505.375
1764840140.141071,0,0,-1399,-174.875
1764840140.1450572,0,0,-1688,-211.000
1764840140.149056,0,0,1757,219.625
1764840140.15307,1,1,5415,676.875
1764840140.1570706,0,0,4225,528.125
1764840140.161076,0,0,-1269,-158.625
1764840140.165058,0,0,-1701,-212.625
1764840140.1690564,0,0,1232,154.000
1764840140.1730723,1,1,5096,637.000
1764840140.1770663,0,0,4389,548.625
1764840140.1810746,0,0,-1324,-165.500
1764840140.185072,0,0,-1730,-216.250
1764840140.189084,0,0,1483,185.375
1764840140.1930735,1,1,5234,654.250
1764840140.1970685,0,0,4636,579.500
1764840140.2010736,0,0,-1386,-173.250
1764840140.2050748,0,0,-1753,-219.125
1764840140.2090693,0,0,1604,200.500
1764840140.2130747,1,1,5282,660.250
1764840140.2170694,0,0,4817,602.125
1764840140.221075,0,0,-1242,-155.250
1764840140.2250679,0,0,-1746,-218.250
1764840140.2290711,0,0,1278,159.750
1764840140.2330747,1,1,5060,632.500
1764840140.2370691,0,0,4941,617.625
1764840140.2410822,0,0,-1152,-144.000
1764840140.2454407,0,0,-1721,-215.125
1764840140.249177,0,0,985,123.125
1764840140.253087,1,1,4861,607.625
1764840140.2570705,0,0,5083,635.375
1764840140.2610717,0,0,-1164,-145.500
1764840140.2650697,0,0,-1744,-218.000
1764840140.2690685,0,0,1028,128.500
1764840140.2784617,0,0,5295,661.875
1764840140.2810967,0,0,-1240,-155.000
1764840140.2850718,0,0,-1868,-233.500
1764840140.289068,0,0,1288,161.000
1764840140.293072,1,1,5002,625.250
1764840140.2970715,0,0,5410,676.250
1764840140.3010685,0,0,-1034,-129.250
1764840140.305063,0,0,-1712,-214.000
1764840140.309067,0,0,719,89.875
1764840140.3130772,1,1,4617,577.125
1764840140.3170748,0,0,5451,681.375
1764840140.3210793,0,0,-996,-124.500
1764840140.3250678,0,0,-1754,-219.250
1764840140.3290706,0,0,809,101.125
1764840140.333076,1,1,4658,582.250
1764840140.3370717,0,0,5620,702.500
1764840140.3410716,0,0,-926,-115.750
1764840140.3450704,0,0,-1786,-223.250
1764840140.3490665,0,0,794,99.250
1764840140.353073,1,1,4624,578.000
1764840140.3570697,0,0,5751,718.875
1764840140.3610735,0,0,-884,-110.500
1764840140.365069,0,0,-1971,-246.375
1764840140.3690686,0,0,983,122.875
1764840140.3730595,1,1,4714,589.250
1764840140.3770552,0,0,5870,733.750
1764840140.3810675,0,0,-712,-89.000
1764840140.3850713,0,0,-1696,-212.000
1764840140.3891027,0,0,425,53.125
1764840140.3930712,1,1,4314,539.250
1764840140.3970692,0,0,5870,733.750
1764840140.4010727,0,0,-641,-80.125
1764840140.4050834,0,0,-1751,-218.875
1764840140.4090717,0,0,482,60.250
1764840140.4130602,1,1,4330,541.250
1764840140.4170496,0,0,5991,748.875
1764840140.4210696,0,0,-455,-56.875
1764840140.4250698,0,0,-2076,-259.500
1764840140.4290676,0,0,857,107.125
1764840140.4330573,1,1,4548,568.500
1764840140.4370484,0,0,6111,763.875
1764840140.4410653,0,0,-328,-41.000
1764840140.4450696,0,0,-1964,-245.500
1764840140.4490676,0,0,487,60.875
1764840140.4530673,1,1,4263,532.875
1764840140.4570615,0,0,6111,763.875
1764840140.4610674,0,0,-82,-10.250
1764840140.4650686,0,0,-2058,-257.250
1764840140.4690664,0,0,911,113.875
1764840140.4730682,1,1,4505,563.125
1764840140.4771502,0,0,6224,778.000
1764840140.4810822,0,0,200,25.000
1764840140.4850526,0,0,-1759,-219.875
1764840140.4890876,0,0,1384,173.000
1764840140.4930685,1,1,4725,590.625
1764840140.4970675,0,0,6263,782.875
1764840140.5010693,0,0,448,56.000
1764840140.5050488,0,0,-1540,-192.500
1764840140.5090513,0,0,1599,199.875
1764840140.5130703,1,1,4775,596.875
1764840140.5170665,0,0,6222,777.750
1764840140.5210748,0,0,372,46.500
1764840140.5250678,0,0,837,104.625
1764840140.52907,0,0,4276,534.500
1764840140.5330727,1,1,6095,761.875
1764840140.537065,0,0,559,69.875
1764840140.5410655,0,0,-2003,-250.375
1764840140.5450654,0,0,889,111.125
1764840140.5490675,0,0,4255,531.875
1764840140.553055,1,1,6059,757.375
1764840140.5570521,0,0,971,121.375
1764840140.5610576,0,0,-1667,-208.375
1764840140.5650725,0,0,1173,146.625
1764840140.569075,0,0,4302,537.750
1764840140.5730596,1,1,5988,748.500
1764840140.5770516,0,0,1332,166.500
1764840140.581062,0,0,-1008,-126.000
1764840140.5850673,0,0,1811,226.375
1764840140.5890646,0,0,4559,569.875
1764840140.5930767,1,1,5947,743.375
1764840140.597051,0,0,1613,201.625
1764840140.6010613,0,0,-1046,-130.750
1764840140.6050649,0,0,1464,183.000
1764840140.6090648,0,0,4182,522.750
1764840140.6130722,1,1,5709,713.625
1764840140.6170688,0,0,1862,232.750
1764840140.6210673,0,0,-792,-99.000
1764840140.6250627,0,0,1531,191.375
1764840140.6290646,0,0,4075,509.375
1764840140.633072,1,1,5544,693.000
1764840140.6370654,0,0,2173,271.625
1764840140.6410651,0,0,-40,-5.000
1764840140.6450653,0,0,2220,277.500
1764840140.6490645,0,0,4337,542.125
1764840140.6530657,1,1,5461,682.625
1764840140.6570635,0,0,2412,301.500
1764840140.6610675,0,0,379,47.375
1764840140.6650662,0,0,2484,310.500
1764840140.6690624,0,0,4333,541.625
1764840140.673064,1,1,5290,661.250
1764840140.6771488,0,0,2370,296.250
1764840140.681084,0,0,126,15.750
1764840140.6850543,0,0,2172,271.500
1764840140.6890457,0,0,4079,509.875
1764840140.693102,1,1,5114,639.250
1764840140.6970682,0,0,2413,301.625
1764840140.7010763,0,0,3,0.375
1764840140.705049,0,0,1976,247.000
1764840140.7090454,0,0,3889,486.125
1764840140.713065,1,1,4954,619.250
1764840140.7170653,0,0,2778,347.250
1764840140.7210724,0,0,922,115.250
1764840140.725067,0,0,2813,351.625
1764840140.729067,0,0,4222,527.750
1764840140.733066,1,1,4862,607.750
1764840140.7370627,0,0,2676,334.500
1764840140.741065,0,0,833,104.125
1764840140.7450671,0,0,2789,348.625
1764840140.7490652,0,0,4173,521.625
1764840140.7530665,1,1,4746,593.250
1764840140.7570615,0,0,2645,330.625
1764840140.7610676,0,0,422,52.750
1764840140.7650645,0,0,2221,277.625
1764840140.7690647,0,0,3750,468.750
1764840140.7730656,1,1,4509,563.625
1764840140.777064,0,0,2658,332.250
1764840140.781065,0,0,397,49.625
1764840140.785065,0,0,2201,275.125
1764840140.789063,0,0,3697,462.125
1764840140.793083,1,1,4395,549.375
1764840140.7970603,0,0,2807,350.875
1764840140.8010592,0,0,890,111.250
1764840140.8050473,0,0,2661,332.625
1764840140.8090482,0,0,3863,482.875
1764840140.813052,1,1,4294,536.750
1764840140.8170507,0,0,2770,346.250
1764840140.821043,0,0,827,103.375
1764840140.8250577,0,0,2519,314.875
1764840140.8290467,0,0,3692,461.500
1764840140.8330657,1,1,4119,514.875
1764840140.8370597,0,0,2746,343.250
1764840140.841071,0,0,768,96.000
1764840140.8450453,0,0,2443,305.375
1764840140.849047,0,0,3596,449.500
1764840140.8530645,1,1,3988,498.500
1764840140.8570645,0,0,2764,345.500
1764840140.8610606,0,0,924,115.500
1764840140.8650603,0,0,2635,329.375
1764840140.8690605,0,0,3671,458.875
1764840140.8730662,1,1,3908,488.500
1764840140.87715,0,0,2602,325.250
1764840140.8810782,0,0,203,25.375
1764840140.885049,0,0,1768,221.000
1764840140.8890448,0,0,3114,389.250
1764840140.893061,1,1,3667,458.375
1764840140.8971016,0,0,2656,332.000
1764840140.9010596,0,0,656,82.000
1764840140.905059,0,0,2404,300.500
1764840140.9090571,0,0,3501,437.625
1764840140.9130664,1,1,3702,462.750
1764840140.9170618,0,0,2591,323.875
1764840140.9210813,0,0,394,49.250
1764840140.92506,0,0,2088,261.000
1764840140.92906,0,0,3279,409.875
1764840140.9330666,1,1,3556,444.500
1764840140.937074,0,0,2504,313.000
1764840140.9410622,0,0,-42,-5.250
1764840140.94506,0,0,1541,192.625
1764840140.9490576,0,0,2921,365.125
1764840140.9530718,1,1,3382,422.750
1764840140.9570606,0,0,2351,293.875
1764840140.961076,0,0,-906,-113.250
1764840140.9650736,0,0,527,65.875
1764840140.9690628,0,0,2327,290.875
1764840140.9730518,1,1,3189,398.625
1764840140.9770563,0,0,2560,320.000
1764840140.981059,0,0,-440,-55.000
1764840140.9850626,0,0,807,100.875
1764840140.9890585,0,0,2363,295.375
1764840140.9930627,1,1,3069,383.625
1764840140.9970574,0,0,2366,295.750
1764840141.0010622,0,0,-1085,-135.625
1764840141.0050626,0,0,232,29.000
1764840141.0090635,0,0,2123,265.375
1764840141.0130646,1,1,3033,379.125
1764840141.0170593,0,0,2455,306.875
1764840141.0210595,0,0,-1216,-152.000
1764840141.0250628,0,0,-117,-14.625
1764840141.0290613,0,0,1848,231.000
1764840141.0330634,1,1,2885,360.625
1764840141.0370588,0,0,2386,298.250
1764840141.0410624,0,0,-1944,-243.000
1764840141.0450609,0,0,-1469,-183.625
1764840141.0490606,0,0,845,105.625
1764840141.0530498,1,1,2535,316.875
1764840141.0570421,0,0,2585,323.125
1764840141.0610569,0,0,-1518,-189.750
1764840141.0650616,0,0,-1027,-128.375
1764840141.0690587,0,0,1126,140.750
1764840141.0730639,1,1,2571,321.375
1764840141.0771427,0,0,2595,324.375
1764840141.0810757,0,0,-1520,-190.000
1764840141.085049,0,0,-1143,-142.875
1764840141.0890481,0,0,1034,129.250
1764840141.093061,1,1,2514,314.250
1764840141.0970953,0,0,2632,329.000
1764840141.1010616,0,0,-1366,-170.750
1764840141.1050456,0,0,-969,-121.125
1764840141.109044,0,0,1174,146.750
1764840141.1130753,1,1,2545,318.125
1764840141.1170573,0,0,2677,334.625
1764840141.121068,0,0,-1305,-163.125
1764840141.1250393,0,0,-1096,-137.000
1764840141.1290421,0,0,1027,128.375
1764840141.133055,1,1,2443,305.375
1764840141.137066,0,0,2666,333.250
1764840141.1410637,0,0,-1501,-187.625
1764840141.1450582,0,0,-1698,-212.250
1764840141.1490567,0,0,476,59.500
1764840141.1530716,1,1,2202,275.250
1764840141.1570559,0,0,2710,338.750
1764840141.1610541,0,0,-1334,-166.750
1764840141.1650517,0,0,-1448,-181.000
1764840141.1690557,0,0,778,97.250
1764840141.1730592,1,1,2769,346.125
1764840141.1770542,0,0,-1321,-165.125
1764840141.1810524,0,0,-1977,-247.125
1764840141.185052,0,0,148,18.500
1764840141.1890533,0,0,2105,263.125
1764840141.1930609,1,1,2865,358.125
1764840141.1970894,0,0,-913,-114.125
1764840141.2010546,0,0,-1339,-167.375
1764840141.2050574,0,0,770,96.250
1764840141.2090538,0,0,2288,286.000
1764840141.2130597,1,1,2792,349.000
1764840141.217055,0,0,-1274,-159.250
1764840141.2210615,0,0,-1952,-244.000
1764840141.225066,0,0,249,31.125
1764840141.2290564,0,0,2127,265.875
1764840141.2330492,1,1,2903,362.875
1764840141.2370415,0,0,-1074,-134.250
1764840141.2410648,0,0,-2054,-256.750
1764840141.2454317,0,0,35,4.375
1764840141.2491646,0,0,2000,250.000
1764840141.25307,1,1,2922,365.250
1764840141.257053,0,0,-933,-116.625
1764840141.2610576,0,0,-1968,-246.000
1764840141.265056,0,0,-259,-32.375
1764840141.269055,0,0,1869,233.625
1764840141.273057,1,1,2974,371.750
1764840141.2824044,0,0,-2069,-258.625
1764840141.2850783,0,0,-308,-38.500
1764840141.289056,0,0,1847,230.875
1764840141.2930572,1,1,3015,376.875
1764840141.2970688,0,0,-632,-79.000
1764840141.3010645,0,0,-1776,-222.000
1764840141.3050563,0,0,-487,-60.875
1764840141.309058,0,0,1790,223.750
1764840141.3130662,1,1,3090,386.250
1764840141.3170555,0,0,-498,-62.250
1764840141.3210602,0,0,-1743,-217.875
1764840141.3250427,0,0,-480,-60.000
1764840141.329051,0,0,1839,229.875
1764840141.333061,1,1,3180,397.500
1764840141.3370552,0,0,-365,-45.625
1764840141.3410618,0,0,-1677,-209.625
1764840141.3450546,0,0,-538,-67.250
1764840141.349059,0,0,1849,231.125
1764840141.3530576,1,1,3255,406.875
1764840141.3570518,0,0,-184,-23.000
1764840141.3610597,0,0,-1443,-180.375
1764840141.3650572,0,0,-798,-99.750
1764840141.3690643,0,0,1795,224.375
1764840141.3730521,1,1,3409,426.125
1764840141.3770382,0,0,52,6.500
1764840141.3810568,0,0,-1227,-153.375
1764840141.385057,0,0,-1157,-144.625
1764840141.3890555,0,0,1596,199.500
1764840141.393049,1,1,3501,437.625
1764840141.3970375,0,0,311,38.875
1764840141.4011083,0,0,-1133,-141.625
1764840141.4050655,0,0,-1242,-155.250
1764840141.4090583,0,0,1623,202.875
1764840141.413062,1,1,3674,459.250
1764840141.4170666,0,0,513,64.125
1764840141.4210575,0,0,-1316,-164.500
1764840141.4250548,0,0,-1003,-125.375
1764840141.4290571,0,0,1819,227.375
1764840141.4330723,1,1,3762,470.250
1764840141.4370534,0,0,675,84.375
1764840141.4410574,0,0,-1192,-149.000
1764840141.4450536,0,0,-1166,-145.750
1764840141.4490678,0,0,1735,216.875
1764840141.453061,1,1,3826,478.250
1764840141.457058,0,0,941,117.625
1764840141.4610531,0,0,-1264,-158.000
1764840141.4650629,0,0,-1115,-139.375
1764840141.469054,0,0,1812,226.500
1764840141.4730613,1,1,3908,488.500
1764840141.477054,0,0,1155,144.375
1764840141.4811678,0,0,-1266,-158.250
1764840141.4850724,0,0,-1130,-141.250
1764840141.4890542,0,0,1867,233.375
1764840141.493052,1,1,4010,501.250
1764840141.4970384,0,0,1333,166.625
1764840141.5010526,0,0,-979,-122.375
1764840141.5050526,0,0,-1459,-182.375
1764840141.5090523,0,0,1612,201.500
1764840141.5130458,1,1,4038,504.750
1764840141.517039,0,0,1718,214.750
1764840141.5210588,0,0,-982,-122.750
1764840141.5250504,0,0,-1532,-191.500
1764840141.5290506,0,0,1560,195.000
1764840141.5330596,1,1,4099,512.375
1764840141.5370517,0,0,2068,258.500
1764840141.5410523,0,0,-1219,-152.375
1764840141.5450485,0,0,-1399,-174.875
1764840141.54905,0,0,1731,216.375
1764840141.5530431,1,1,4191,523.875
1764840141.5570357,0,0,2290,286.250
1764840141.5610552,0,0,-1302,-162.750
1764840141.5650563,0,0,-1407,-175.875
1764840141.5690517,0,0,1764,220.500
1764840141.5730526,1,1,4257,532.125
1764840141.5770488,0,0,2509,313.625
1764840141.5810528,0,0,-1133,-141.625
1764840141.5850515,0,0,-1620,-202.500
1764840141.589048,0,0,1438,179.750
1764840141.5930467,1,1,4196,524.500
1764840141.5970535,0,0,2843,355.375
1764840141.6010582,0,0,-1126,-140.750
1764840141.6050527,0,0,-1646,-205.750
1764840141.6090493,0,0,1359,169.875
1764840141.6130574,1,1,4202,525.250
1764840141.61705,0,0,3081,385.125
1764840141.6210525,0,0,-1135,-141.875
1764840141.62505,0,0,-1666,-208.250
1764840141.6290503,0,0,1071,133.875
1764840141.6330583,1,1,4128,516.000
1764840141.6370625,0,0,3387,423.375
1764840141.6410515,0,0,-1223,-152.875
1764840141.6450384,0,0,-1652,-206.500
1764840141.6490355,0,0,1384,173.000
1764840141.6530504,1,1,4307,538.375
1764840141.65705,0,0,3638,454.750
1764840141.661054,0,0,-1199,-149.875
1764840141.6650357,0,0,-1667,-208.375
1764840141.6690338,0,0,1304,163.000
1764840141.6730504,1,1,4287,535.875
1764840141.677051,0,0,3854,481.750
1764840141.6811619,0,0,-1196,-149.500
1764840141.6850698,0,0,-1677,-209.625
1764840141.6890547,0,0,1240,155.000
1764840141.693046,1,1,4273,534.125
1764840141.6970344,0,0,4056,507.000
1764840141.7010515,0,0,-1206,-150.750
1764840141.705059,0,0,-1686,-210.750
1764840141.7090526,0,0,1261,157.625
1764840141.7130444,1,1,4288,536.000
1764840141.7170343,0,0,4228,528.500
1764840141.7210503,0,0,-1098,-137.250
1764840141.7250504,0,0,-1675,-209.375
1764840141.7290504,0,0,958,119.750
1764840141.7330577,1,1,4153,519.125
1764840141.7370505,0,0,4437,554.625
1764840141.7410483,0,0,-1265,-158.125
1764840141.7450473,0,0,-1711,-213.875
1764840141.7490513,0,0,1446,180.750
1764840141.7530541,1,1,4386,548.250
1764840141.757049,0,0,4544,568.000
1764840141.7610683,0,0,-1000,-125.000
1764840141.7650642,0,0,-1634,-204.250
1764840141.7690551,0,0,562,70.250
1764840141.7730472,1,1,3933,491.625
1764840141.7770345,0,0,4694,586.750
1764840141.7810488,0,0,-954,-119.250
1764840141.7850473,0,0,-1666,-208.250
1764840141.7890484,0,0,671,83.875
1764840141.7930431,1,1,4001,500.125
1764840141.797036,0,0,4877,609.625
1764840141.8010519,0,0,-873,-109.125
1764840141.8050845,0,0,-1641,-205.125
1764840141.8090334,0,0,504,63.000
1764840141.8130503,1,1,3907,488.375
1764840141.817053,0,0,5010,626.250
1764840141.8210573,0,0,-881,-110.125
1764840141.825049,0,0,910,113.750
1764840141.829048,0,0,4144,518.000
1764840141.8330529,1,1,5100,637.500
1764840141.8370504,0,0,-736,-92.000
1764840141.8410501,0,0,-1333,-166.625
1764840141.8450508,0,0,-618,-77.250
1764840141.8490472,0,0,3118,389.750
1764840141.853051,1,1,5071,633.875
1764840141.8570485,0,0,-601,-75.125
1764840141.8610506,0,0,-1636,-204.500
1764840141.865049,0,0,355,44.375
1764840141.8690464,0,0,3852,481.500
1764840141.87305,1,1,5395,674.375
1764840141.877049,0,0,-404,-50.500
1764840141.881145,0,0,-1479,-184.875
1764840141.8850703,0,0,-187,-23.375
1764840141.88905,0,0,3485,435.625
1764840141.8930433,1,1,5429,678.625
1764840141.897033,0,0,-304,-38.000
1764840141.9010508,0,0,-1593,-199.125
1764840141.905078,0,0,111,13.875
1764840141.9090338,0,0,3694,461.750
1764840141.9130335,1,1,5572,696.500
1764840141.9170306,0,0,-197,-24.625
1764840141.9210522,0,0,-1739,-217.375
1764840141.9250488,0,0,292,36.500
1764840141.9290478,0,0,3790,473.750
1764840141.9330392,1,1,5632,704.000
1764840141.9370291,0,0,-53,-6.625
1764840141.941049,0,0,-1570,-196.250
1764840141.9450462,0,0,-61,-7.625
1764840141.9490492,0,0,3550,443.750
1764840141.953048,1,1,5627,703.375
1764840141.9570441,0,0,95,11.875
1764840141.9610474,0,0,-1531,-191.375
1764840141.965049,0,0,-198,-24.750
1764840141.9690452,0,0,3434,429.250
1764840141.9730496,1,1,5647,705.875
1764840141.9770434,0,0,316,39.500
1764840141.9810483,0,0,-1375,-171.875
1764840141.9850473,0,0,-542,-67.750
1764840141.9890459,0,0,3161,395.125
1764840141.9930506,1,1,5619,702.375
1764840141.9970453,0,0,600,75.000
1764840142.001045,0,0,-1944,-243.000
1764840142.0050585,0,0,-6,-0.750
1764840142.0090473,0,0,3551,443.875
1764840142.013052,1,1,5751,718.875
1764840142.017042,0,0,772,96.500
1764840142.0210419,0,0,-1548,-193.500
1764840142.0250435,0,0,-471,-58.875
1764840142.0290468,0,0,3189,398.625
1764840142.0330496,1,1,5671,708.875
1764840142.0370436,0,0,1025,128.125
1764840142.0410442,0,0,-1699,-212.375
1764840142.0450432,0,0,-424,-53.000
1764840142.0490434,0,0,3208,401.000
1764840142.0530376,1,1,5682,710.250
1764840142.0570304,0,0,1150,143.750
1764840142.0610363,0,0,-1015,-126.875
1764840142.0650477,0,0,-1424,-178.000
1764840142.0690532,0,0,2215,276.875
1764840142.0730398,1,1,5356,669.500
1764840142.077028,0,0,1476,184.500
1764840142.0811336,0,0,-1426,-178.250
1764840142.085057,0,0,-948,-118.500
1764840142.0890436,0,0,2758,344.750
1764840142.0930495,0,1,5616,702.000
1764840142.0970466,0,0,1884,235.500
1764840142.101046,0,0,-2273,-284.125
1764840142.105042,0,0,-285,-35.625
1764840142.1090817,0,0,3298,412.250
1764840142.113047,1,0,5784,723.000
1764840142.1170506,0,0,2020,252.500
1764840142.1210563,0,0,-1894,-236.750
1764840142.1250448,0,0,-727,-90.875
1764840142.129045,0,0,2926,365.750
1764840142.1330526,0,1,5646,705.750
1764840142.1370463,0,0,2292,286.500
1764840142.1410503,0,0,-2252,-281.500
1764840142.1450408,0,0,-557,-69.625
1764840142.149031,0,0,3032,379.000
1764840142.153031,1,1,5645,705.625
1764840142.1570318,0,0,2377,297.125
1764840142.1610482,0,0,-1340,-167.500
1764840142.165048,0,0,-1324,-165.500
1764840142.169044,0,0,2288,286.000
1764840142.1730356,1,0,5368,671.000
1764840142.1770291,0,0,2657,332.125
1764840142.1810486,0,0,-2133,-266.625
1764840142.1850457,0,0,-818,-102.250
1764840142.1890414,0,0,2791,348.875
1764840142.193046,0,1,5539,692.375
1764840142.1970444,0,0,2896,362.000
1764840142.2010453,0,0,-2184,-273.000
1764840142.2050488,0,0,-845,-105.625
1764840142.209043,0,0,2721,340.125
1764840142.2130506,1,0,5459,682.375
1764840142.2170424,0,0,3071,383.875
1764840142.221044,0,0,-2041,-255.125
1764840142.2250433,0,0,-1020,-127.500
1764840142.229045,0,0,2546,318.250
1764840142.2330458,1,1,5371,671.375
1764840142.2370393,0,0,3221,402.625
1764840142.241052,0,0,-1737,-217.125
1764840142.2454257,0,0,-1249,-156.125
1764840142.2491455,0,0,2292,286.500
1764840142.2530496,1,1,5239,654.875
1764840142.2570257,0,0,3411,426.375
1764840142.2610424,0,0,-1648,-206.000
1764840142.2650454,0,0,-1346,-168.250
1764840142.2690403,0,0,2172,271.500
1764840142.273041,0,0,5169,646.125
1764840142.2770383,0,0,3612,451.500
1764840142.2864573,0,0,2315,289.375
1764840142.2890666,0,0,2315,289.375
1764840142.293047,1,1,5193,649.125
1764840142.2971513,0,0,3897,487.125
1764840142.3010626,0,0,-1577,-197.125
1764840142.305053,0,0,-204,-25.500
1764840142.3090796,0,0,3037,379.625
1764840142.3130443,1,0,5347,668.375
1764840142.317038,0,0,3786,473.250
1764840142.3210425,0,0,-1492,-186.500
1764840142.3250406,0,0,-1498,-187.250
1764840142.3290405,0,0,1926,240.750
1764840142.3330467,1,1,4925,615.625
1764840142.3370388,0,0,4023,502.875
1764840142.341043,0,0,-1767,-220.875
1764840142.3450437,0,0,-1453,-181.625
1764840142.3490434,0,0,1945,243.125
1764840142.3530488,0,0,4887,610.875
1764840142.3570437,0,0,4102,512.750
1764840142.3610463,0,0,-1314,-164.250
1764840142.365042,0,0,-1658,-207.250
1764840142.3690412,0,0,1626,203.250
1764840142.3730474,1,1,4732,591.500
1764840142.3770423,0,0,4289,536.125
1764840142.3810415,0,0,-1454,-181.750
1764840142.3850393,0,0,-1628,-203.500
1764840142.389041,0,0,1695,211.875
1764840142.3930452,0,0,4736,592.000
1764840142.3970425,0,0,4422,552.750
1764840142.401046,0,0,-1213,-151.625
1764840142.405041,0,0,-1712,-214.000
1764840142.409041,0,0,1331,166.375
1764840142.4130673,0,0,4545,568.125
1764840142.4170263,0,0,4586,573.250
1764840142.4210389,0,0,-1632,-204.000
1764840142.4250429,0,0,-1399,-174.875
1764840142.4290397,0,0,1963,245.375
1764840142.4330492,0,0,4804,600.500
1764840142.4370437,0,0,4680,585.000
1764840142.4410439,0,0,-1499,-187.375
1764840142.4450428,0,0,-1674,-209.250
1764840142.4490402,0,0,1605,200.625
1764840142.4530451,0,0,4607,575.875
1764840142.4570448,0,0,4751,593.875
1764840142.4610445,0,0,-1063,-132.875
1764840142.4650488,0,0,-1719,-214.875
1764840142.46905,0,0,1060,132.500
1764840142.4730353,0,0,4316,539.500
1764840142.477029,0,0,-1026,-128.250
1764840142.4810443,0,0,-1727,-215.875
1764840142.485132,0,0,978,122.250
1764840142.4890506,0,0,4257,532.125
1764840142.4930372,0,0,5002,625.250
1764840142.4970264,0,0,-1039,-129.875
1764840142.501042,0,0,-1788,-223.500
1764840142.5050428,0,0,1055,131.875
1764840142.50904,0,0,4281,535.125
1764840142.5130486,0,0,5036,629.500
1764840142.5170243,0,0,-770,-96.250
1764840142.5210483,0,0,-1419,-177.375
1764840142.525043,0,0,-373,-46.625
1764840142.5290413,0,0,3377,422.125
1764840142.5330455,0,0,5100,637.500
1764840142.5370374,0,0,-827,-103.375
1764840142.5410578,0,0,-1601,-200.125
1764840142.5450478,0,0,1595,199.375
1764840142.5490444,0,0,4545,568.125
1764840142.5530324,0,0,5371,671.375
1764840142.557023,0,0,-766,-95.750
1764840142.561037,0,0,-1818,-227.250
1764840142.5650394,0,0,844,105.500
1764840142.5690384,0,0,4142,517.750
1764840142.57303,0,0,5392,674.000
1764840142.5770187,0,0,-648,-81.000
1764840142.5810366,0,0,-1787,-223.375
1764840142.585041,0,0,685,85.625
1764840142.5890408,0,0,4026,503.250
1764840142.5930438,0,0,5438,679.750
1764840142.5970383,0,0,-485,-60.625
1764840142.6010413,0,0,-1740,-217.500
1764840142.6050415,0,0,474,59.250
1764840142.6090388,0,0,3875,484.375
1764840142.6130538,0,0,5463,682.875
1764840142.6170394,0,0,-392,-49.000
1764840142.6210423,0,0,-1931,-241.375
1764840142.6250343,0,0,627,78.375
1764840142.6290386,0,0,3943,492.875
1764840142.6330416,0,0,5511,688.875
1764840142.6370368,0,0,-227,-28.375
1764840142.641037,0,0,-1659,-207.375
1764840142.6450365,0,0,218,27.250
1764840142.6490352,0,0,3673,459.125
1764840142.6530435,0,0,5508,688.500
1764840142.6570385,0,0,-38,-4.750
1764840142.6610358,0,0,-1599,-199.875
1764840142.6650357,0,0,15,1.875
1764840142.6690378,0,0,3520,440.000
1764840142.6730425,0,0,5512,689.000
1764840142.6770368,0,0,115,14.375
1764840142.6810348,0,0,-1601,-200.125
1764840142.685132,0,0,-39,-4.875
1764840142.6890488,0,0,3476,434.500
1764840142.693036,0,0,5546,693.250
1764840142.697022,0,0,283,35.375
1764840142.7010386,0,0,-1678,-209.750
1764840142.7050407,0,0,-18,-2.250
1764840142.709036,0,0,3473,434.125
1764840142.7130327,0,0,5570,696.250
1764840142.717061,0,0,508,63.500
1764840142.7210412,0,0,-1609,-201.125
1764840142.7250378,0,0,-246,-30.750
1764840142.729036,0,0,3291,411.375
1764840142.733044,0,0,5541,692.625
1764840142.737038,0,0,705,88.125
1764840142.7410371,0,0,-1428,-178.500
1764840142.7450337,0,0,-570,-71.250
1764840142.7490356,0,0,3033,379.125
1764840142.7530403,0,0,5497,687.125
1764840142.757036,0,0,985,123.125
1764840142.7610488,0,0,-1627,-203.375
1764840142.7650464,0,0,-501,-62.625
1764840142.7690341,0,0,3073,384.125
1764840142.7730293,0,0,5525,690.625
1764840142.7770205,0,0,1248,156.000
1764840142.7810352,0,0,-1745,-218.125
1764840142.7850354,0,0,-490,-61.250
1764840142.7890334,0,0,3067,383.375
1764840142.7930255,0,0,5525,690.625
1764840142.79702,0,0,1486,185.750
1764840142.8010354,0,0,-2175,-271.875
1764840142.805032,0,0,-304,-38.000
1764840142.80902,0,0,3187,398.375
1764840142.8130379,0,0,5547,693.375
1764840142.817071,0,0,1718,214.750
1764840142.8210468,0,0,-2112,-264.000
1764840142.8250391,0,0,-483,-60.375
1764840142.8290386,0,0,3016,377.000
1764840142.8330379,0,0,5466,683.250
1764840142.8370347,0,0,1847,230.875
1764840142.8410442,0,0,-1875,-234.375
1764840142.8450382,0,0,-656,-82.000
1764840142.8490372,0,0,2874,359.250
1764840142.853038,0,0,5413,676.625
1764840142.8570352,0,0,2124,265.500
1764840142.8610413,0,0,-1967,-245.875
1764840142.8650372,0,0,-721,-90.125
1764840142.8690376,0,0,2785,348.125
1764840142.8730383,0,0,5359,669.875
1764840142.8770335,0,0,2347,293.375
1764840142.8810353,0,0,-1707,-213.375
1764840142.885123,0,0,-996,-124.500
1764840142.8890514,0,1,2527,315.875
1764840142.893036,0,0,5251,656.375
1764840142.897018,0,0,2571,321.375
1764840142.9010305,0,0,-1844,-230.500
1764840142.90504,0,0,-999,-124.875
1764840142.9090366,0,1,2496,312.000
1764840142.9130294,0,0,5213,651.625
1764840142.917019,0,0,2800,350.000
1764840142.9210346,0,0,-2173,-271.625
1764840142.9250278,0,0,-527,-65.875
1764840142.9290206,0,1,2850,356.250
1764840142.9330373,0,0,5280,660.000
1764840142.9370358,0,0,2856,357.000
1764840142.9410386,0,0,-1826,-228.250
1764840142.945032,0,0,-1100,-137.500
1764840142.9490335,0,1,2369,296.125
1764840142.9530387,0,0,5100,637.500
1764840142.9570343,0,0,3072,384.000
1764840142.9610398,0,0,-1657,-207.125
1764840142.9650342,0,0,-1272,-159.000
1764840142.969035,1,1,2182,272.750
1764840142.9730263,0,0,5010,626.250
1764840142.9770193,0,0,3312,414.000
1764840142.9810355,0,0,-2052,-256.500
1764840142.9850326,0,0,-1145,-143.125
1764840142.989031,1,1,2270,283.750
1764840142.9930384,0,0,4998,624.750
1764840142.9970348,0,0,3448,431.000
1764840143.001039,0,0,-1677,-209.625
1764840143.0050294,0,0,-1354,-169.250
1764840143.00903,1,1,2047,255.875
1764840143.0130415,0,0,4890,611.250
1764840143.0170329,0,0,3648,456.000
1764840143.0210335,0,0,-1612,-201.500
1764840143.025031,0,0,-1454,-181.750
1764840143.0290298,1,1,1905,238.125
1764840143.0330358,0,0,4798,599.750
1764840143.0370328,0,0,3799,474.875
1764840143.041041,0,0,-1670,-208.750
1764840143.0450327,0,0,-1464,-183.000
1764840143.049031,1,1,1884,235.500
1764840143.0530229,0,0,4765,595.625
1764840143.057018,0,0,3949,493.625
1764840143.06103,0,0,-1554,-194.250
1764840143.0650442,0,0,-1549,-193.625
1764840143.0690417,1,1,1761,220.125
1764840143.073029,0,0,4686,585.750
1764840143.0770192,0,0,4119,514.875
1764840143.081038,0,0,-1784,-223.000
1764840143.0851226,0,0,-1522,-190.250
1764840143.0890448,1,1,1761,220.125
1764840143.0930312,0,0,4640,580.000
1764840143.097017,0,0,4260,532.500
1764840143.1010375,0,0,-1568,-196.000
1764840143.1050334,0,0,-1669,-208.625
1764840143.1090324,1,1,1530,191.250
1764840143.1130235,0,0,4495,561.875
1764840143.1170146,0,0,4378,547.250
1764840143.1210563,0,0,-1676,-209.500
1764840143.1250384,0,0,1656,207.000
1764840143.1290343,1,1,4519,564.875
1764840143.1330342,0,0,4428,553.500
1764840143.1370308,0,0,-1214,-151.750
1764840143.14104,0,0,-1728,-216.000
1764840143.1450317,0,0,1255,156.875
1764840143.149031,1,1,4347,543.375
1764840143.153033,0,0,4494,561.750
1764840143.1570292,0,0,-968,-121.000
1764840143.1610384,0,0,-1540,-192.500
1764840143.1650212,0,0,84,10.500
1764840143.1690242,1,1,3703,462.875
1764840143.1730163,0,0,4765,595.625
1764840143.1770165,0,0,-1168,-146.000
1764840143.181031,0,0,-1556,-194.500
1764840143.1850333,0,0,1535,191.875
1764840143.1890328,1,1,4404,550.500
1764840143.1930234,0,0,4867,608.375
1764840143.1970127,0,0,-1102,-137.750
1764840143.2010305,0,0,-1814,-226.750
1764840143.205038,0,0,1093,136.625
1764840143.2090368,1,1,4233,529.125
1764840143.213027,0,0,5017,627.125
1764840143.2170165,0,0,-1106,-138.250
1764840143.2210476,0,0,-1897,-237.125
1764840143.2250352,0,0,1074,134.250
1764840143.2290337,1,1,4147,518.375
1764840143.2330382,0,0,5041,630.125
1764840143.237029,0,0,-987,-123.375
1764840143.241041,0,0,-1809,-226.125
1764840143.2454088,0,0,1219,152.375
1764840143.2491474,1,1,4185,523.125
1764840143.2530499,0,0,5068,633.500
1764840143.2570322,0,0,-833,-104.125
1764840143.2610304,0,0,-1795,-224.375
1764840143.2650278,0,0,770,96.250
1764840143.2690265,1,1,3959,494.875
1764840143.2730315,0,0,5119,639.875
1764840143.277029,0,0,-652,-81.500
1764840143.2810328,0,0,-1678,-209.750
1764840143.290395,1,1,3755,469.375
1764840143.29306,0,0,5186,648.250
1764840143.297034,0,0,-465,-58.125
1764840143.3010316,0,0,-1629,-203.625
1764840143.3054326,0,0,215,26.875
1764840143.3091435,1,1,3613,451.625
1764840143.3130536,0,0,5250,656.250
1764840143.3170314,0,0,-400,-50.000
1764840143.3210692,0,0,-2039,-254.875
1764840143.3250272,0,0,750,93.750
1764840143.329025,1,1,3873,484.125
1764840143.3330338,0,0,5296,662.000
1764840143.337029,0,0,-322,-40.250
1764840143.3410306,0,0,-1713,-214.125
1764840143.3450313,0,0,288,36.000
1764840143.3490283,1,1,3610,451.250
1764840143.3530312,0,0,5309,663.625
1764840143.357031,0,0,-211,-26.375
1764840143.3610399,0,0,-1837,-229.625
1764840143.3650324,0,0,398,49.750
1764840143.3690276,1,1,3665,458.125
1764840143.3730319,0,0,5354,669.250
1764840143.3770344,0,0,-5,-0.625
1764840143.3810453,0,0,-1461,-182.625
1764840143.385016,0,0,-328,-41.000
1764840143.3890102,1,1,3186,398.250
1764840143.3930314,0,0,5315,664.375
1764840143.3970268,0,0,163,20.375
1764840143.4010353,0,0,-1573,-196.625
1764840143.4050152,0,0,-165,-20.625
1764840143.4090104,1,1,3290,411.250
1764840143.4130309,0,0,5380,672.500
1764840143.417025,0,0,404,50.500
1764840143.421068,0,0,-1657,-207.125
1764840143.42503,0,0,-168,-21.000
1764840143.4290304,1,1,3268,408.500
1764840143.4330165,0,0,5394,674.250
1764840143.4370105,0,0,528,66.000
1764840143.4410257,0,0,-1349,-168.625
1764840143.4450314,0,0,-641,-80.125
1764840143.4490285,1,1,2923,365.375
1764840143.4530323,0,0,5355,669.375
1764840143.4570286,0,0,883,110.375
1764840143.4610283,0,0,-1878,-234.750
1764840143.465028,0,0,-225,-28.125
1764840143.4690287,1,1,3218,402.250
1764840143.4730332,0,0,5446,680.750
1764840143.4770236,0,0,990,123.750
1764840143.481038,0,0,-1028,-128.500
1764840143.4850283,0,0,-1275,-159.375
1764840143.4891164,1,1,2318,289.750
1764840143.493042,0,0,5211,651.375
1764840143.4970114,0,0,1421,177.625
1764840143.5010302,0,0,-2062,-257.750
1764840143.5050294,0,0,-417,-52.125
1764840143.5090275,1,1,3066,383.250
1764840143.5130205,0,0,5461,682.625
1764840143.517011,0,0,1518,189.750
1764840143.5210288,0,0,-1643,-205.375
1764840143.525067,0,0,-726,-90.750
1764840143.5290291,1,1,2827,353.375
1764840143.5330348,0,0,5403,675.375
1764840143.5370286,0,0,1758,219.750
1764840143.5410345,0,0,-1720,-215.000
1764840143.5450268,0,0,-769,-96.125
1764840143.549029,1,1,2778,347.250
1764840143.5530221,0,0,5385,673.125
1764840143.557014,0,0,2012,251.500
1764840143.5610232,0,0,-1663,-207.875
1764840143.5650287,0,0,-900,-112.500
1764840143.5690293,1,1,2650,331.250
1764840143.5730338,0,0,5336,667.000
1764840143.5770285,0,0,2176,272.000
1764840143.5810316,0,0,-1306,-163.250
1764840143.5850294,0,0,-1323,-165.375
1764840143.5890381,1,1,2223,277.875
1764840143.5930233,0,0,5192,649.000
1764840143.5970144,0,0,2474,309.250
1764840143.6010306,0,0,-1502,-187.750
1764840143.6050265,0,0,-1185,-148.125
1764840143.609025,1,1,2370,296.250
1764840143.6130226,0,0,5254,656.750
1764840143.6170123,0,0,2698,337.250
1764840143.6210294,0,0,-1425,-178.125
1764840143.6250596,0,0,-1337,-167.125
1764840143.6290274,1,1,2201,275.125
1764840143.6330276,0,0,5191,648.875
1764840143.6370265,0,0,2935,366.875
1764840143.6410358,0,0,-1347,-168.375
1764840143.645026,0,0,-1489,-186.125
1764840143.6490242,1,1,1999,249.875
1764840143.653027,0,0,5106,638.250
1764840143.6570258,0,0,3131,391.375
1764840143.661033,0,0,-1377,-172.125
1764840143.6650255,0,0,-1479,-184.875
1764840143.6690226,1,1,2015,251.875
1764840143.6730263,0,0,5113,639.125
1764840143.6770272,0,0,3372,421.500
1764840143.681032,0,0,-1564,-195.500
1764840143.6850257,0,0,-1412,-176.500
1764840143.6891153,1,1,2090,261.250
1764840143.6930296,0,0,5128,641.000
1764840143.697007,0,0,3627,453.375
1764840143.7010307,0,0,-1432,-179.000
1764840143.7050288,0,0,-1555,-194.375
1764840143.7090218,1,1,1885,235.625
1764840143.713015,0,0,5022,627.750
1764840143.717006,0,0,3787,473.375
1764840143.7210271,0,0,-1536,-192.000
1764840143.7250674,0,0,-1477,-184.625
1764840143.7290263,1,1,1992,249.000
1764840143.7330277,0,0,5056,632.000
1764840143.7370229,0,0,3956,494.500
1764840143.7410324,0,0,-1314,-164.250
1764840143.7450259,0,0,-1653,-206.625
1764840143.7490232,1,1,1648,206.000
1764840143.7530246,0,0,4878,609.750
1764840143.7570221,0,0,4121,515.125
1764840143.7610261,0,0,-1274,-159.250
1764840143.7650235,0,0,-1678,-209.750
1764840143.7690246,1,1,1535,191.875
1764840143.7730308,0,0,4821,602.625
1764840143.777022,0,0,-1147,-143.375
1764840143.7810268,0,0,-1613,-201.625
1764840143.785025,0,0,495,61.875
1764840143.7890341,1,1,4243,530.375
1764840143.7930188,0,0,4304,538.000
1764840143.7970068,0,0,-1128,-141.000
1764840143.8010168,0,0,-1591,-198.875
1764840143.8050184,0,0,387,48.375
1764840143.8090093,1,1,4201,525.125
1764840143.81301,0,0,4686,585.750
1764840143.8170054,0,0,-1213,-151.625
1764840143.821022,0,0,-1752,-219.000
1764840143.8250217,0,0,1317,164.625
1764840143.829037,1,1,4758,594.750
1764840143.833027,0,0,4975,621.875
1764840143.8370206,0,0,-1192,-149.000
1764840143.841029,0,0,-1783,-222.875
1764840143.845023,0,0,1307,163.375
1764840143.849022,1,1,4726,590.750
1764840143.8530242,0,0,5089,636.125
1764840143.8570209,0,0,-1144,-143.000
1764840143.8610256,0,0,-1784,-223.000
1764840143.8650172,0,0,1207,150.875
1764840143.8690207,1,1,4645,580.625
1764840143.873024,0,0,5176,647.000
1764840143.877021,0,0,-976,-122.000
1764840143.8810258,0,0,-1733,-216.625
1764840143.8850186,0,0,928,116.000
1764840143.8891146,1,1,4469,558.625
1764840143.8930373,0,0,5319,664.875
1764840143.8970103,0,0,-1018,-127.250
1764840143.901025,0,0,-1826,-228.250
1764840143.9050212,0,0,1061,132.625
1764840143.9090226,1,1,4510,563.750
1764840143.9130154,0,0,5401,675.125
1764840143.9170077,0,0,-885,-110.625
1764840143.921032,0,0,-1782,-222.750
1764840143.9250245,0,0,885,110.625
1764840143.9290588,1,1,4386,548.250
1764840143.9330273,0,0,5446,680.750
1764840143.9370236,0,0,-705,-88.125
1764840143.9410262,0,0,-1595,-199.375
1764840143.9450057,0,0,268,33.500
1764840143.949005,1,1,3983,497.875
1764840143.953024,0,0,5473,684.125
1764840143.9570248,0,0,-621,-77.625
1764840143.9610336,0,0,-1540,-192.500
1764840143.965023,0,0,41,5.125
1764840143.96902,1,1,3824,478.000
1764840143.973026,0,0,5571,696.375
1764840143.9770215,0,0,-486,-60.750
1764840143.9810276,0,0,-1595,-199.375
1764840143.9850335,0,0,152,19.000
1764840143.989024,1,1,3892,486.500
1764840143.9930143,0,0,5695,711.875
1764840143.9970047,0,0,-380,-47.500
1764840144.001022,0,0,-1575,-196.875
1764840144.0050237,0,0,40,5.000
1764840144.0090194,1,1,3803,475.375
1764840144.0130153,0,0,5748,718.500
1764840144.017003,0,0,-285,-35.625
1764840144.0210474,0,0,-1594,-199.250
1764840144.0250254,0,0,54,6.750
1764840144.029032,1,1,3802,475.250
1764840144.0330236,0,0,5810,726.250
1764840144.0370169,0,0,-138,-17.250
1764840144.0410283,0,0,-1402,-175.250
1764840144.0450218,0,0,-453,-56.625
1764840144.0490196,1,1,3400,425.000
1764840144.0530083,0,0,5780,722.500
1764840144.0569997,0,0,85,10.625
1764840144.0610094,0,0,-1447,-180.875
1764840144.0650213,0,0,-375,-46.875
1764840144.0690174,1,1,3458,432.250
1764840144.0730226,0,0,5872,734.000
1764840144.077017,0,0,302,37.750
1764840144.0810223,0,0,-1607,-200.875
1764840144.0850153,0,0,-278,-34.750
1764840144.0891073,1,1,3526,440.750
1764840144.09303,0,0,5956,744.500
1764840144.0970016,0,0,615,76.875
1764840144.1010158,0,0,-1944,-243.000
1764840144.1050189,0,0,-70,-8.750
1764840144.1090188,1,1,3662,457.750
1764840144.1130104,0,0,6013,751.625
1764840144.1169975,0,0,738,92.250
1764840144.1210265,0,0,-1191,-148.875
1764840144.1250181,0,0,-1083,-135.375
1764840144.1290166,1,1,2756,344.500
1764840144.133062,0,0,5735,716.875
1764840144.1370184,0,0,980,122.500
1764840144.1410215,0,0,-1633,-204.125
1764840144.1450167,0,0,-584,-73.000
1764840144.14902,1,1,3234,404.250
1764840144.1530242,0,0,5958,744.750
1764840144.157021,0,0,1220,152.500
1764840144.1610239,0,0,-1544,-193.000
1764840144.1650178,0,0,-820,-102.500
1764840144.1690197,1,1,3003,375.375
1764840144.1730258,0,0,5896,737.000
1764840144.1770194,0,0,1483,185.375
1764840144.1810186,0,0,-1704,-213.000
1764840144.1850007,0,0,-756,-94.500
1764840144.1889994,1,1,3052,381.500
1764840144.1930206,0,0,5926,740.750
1764840144.1970196,0,0,1693,211.625
1764840144.2010255,0,0,-1554,-194.250
1764840144.2050235,0,0,-1011,-126.375
1764840144.2090297,1,1,2789,348.625
1764840144.213017,0,0,5835,729.375
1764840144.217004,0,0,1996,249.500
1764840144.2210183,0,0,-1812,-226.500
1764840144.225016,0,0,-856,-107.000
1764840144.2290165,1,1,2926,365.750
1764840144.2330086,0,0,5888,736.000
1764840144.237003,0,0,2185,273.125
1764840144.2410283,0,0,-1701,-212.625
1764840144.2453847,0,0,-1012,-126.500
1764840144.2491257,1,1,2758,344.750
1764840144.2530303,0,0,5813,726.625
1764840144.2570183,0,0,2384,298.000
1764840144.2610204,0,0,-1594,-199.250
1764840144.2650168,0,0,-1173,-146.625
1764840144.2690134,1,1,2574,321.750
1764840144.2730155,0,0,5732,716.500
1764840144.2770164,0,0,2604,325.500
1764840144.2810197,0,0,-1363,-170.375
1764840144.2850184,0,0,-1486,-185.750
1764840144.294425,0,0,2954,369.250
1764840144.2970386,0,0,2954,369.250
1764840144.3010294,0,0,-2181,-272.625
1764840144.3050048,0,0,-682,-85.250
1764840144.3090017,1,1,3012,376.500
1764840144.3130193,0,0,5883,735.375
1764840144.3170156,0,0,3091,386.375
1764840144.3210201,0,0,-1574,-196.750
1764840144.3250043,0,0,-1369,-171.125
1764840144.3290024,1,1,2298,287.250
1764840144.3330588,0,0,5561,695.125
1764840144.3370187,0,0,3229,403.625
1764840144.3410237,0,0,-1531,-191.375
1764840144.3450181,0,0,-1439,-179.875
1764840144.3490198,1,1,2197,274.625
1764840144.3530173,0,0,5500,687.500
1764840144.357016,0,0,3439,429.875
1764840144.3610225,0,0,-1364,-170.500
1764840144.3650215,0,0,-1644,-205.500
1764840144.3690176,1,1,1752,219.000
1764840144.3730211,0,0,5272,659.000
1764840144.3770154,0,0,3613,451.625
1764840144.3810215,0,0,-1362,-170.250
1764840144.3850143,0,0,-1659,-207.375
1764840144.3890176,1,1,1700,212.500
1764840144.3930194,0,0,5242,655.250
1764840144.3970149,0,0,3836,479.500
1764840144.4010165,0,0,-1336,-167.000
1764840144.4050174,0,0,-1672,-209.000
1764840144.4090168,1,1,1669,208.625
1764840144.413029,0,0,5219,652.375
1764840144.4170227,0,0,4111,513.875
1764840144.421019,0,0,-1382,-172.750
1764840144.4249983,0,0,-1672,-209.000
1764840144.4290001,1,1,5245,655.625
1764840144.4330478,0,0,4272,534.000
1764840144.4370196,0,0,-1312,-164.000
1764840144.441019,0,0,-1701,-212.625
1764840144.444999,0,0,1558,194.750
1764840144.4489992,1,1,5122,640.250
1764840144.453015,0,0,4485,560.625
1764840144.4570115,0,0,-1279,-159.875
1764840144.4610121,0,0,-1721,-215.125
1764840144.4650156,0,0,1426,178.250
1764840144.4690158,1,1,5033,629.125
1764840144.473019,0,0,4634,579.250
1764840144.477016,0,0,-1252,-156.500
1764840144.481014,0,0,-1730,-216.250
1764840144.485013,0,0,1363,170.375
1764840144.4890096,1,1,4994,624.250
1764840144.493102,0,0,4722,590.250
1764840144.497029,0,0,-1141,-142.625
1764840144.5010164,0,0,-1570,-196.250
1764840144.5049965,0,0,252,31.500
1764840144.508995,1,1,4258,532.250
1764840144.513013,0,0,4829,603.625
1764840144.5170162,0,0,-1140,-142.500
1764840144.5210207,0,0,-1716,-214.500
1764840144.5249977,0,0,937,117.125
1764840144.528996,1,1,4728,591.000
1764840144.5330136,0,0,5127,640.875
1764840144.5370562,0,0,-1075,-134.375
1764840144.5410216,0,0,-1726,-215.750
1764840144.5450134,0,0,898,112.250
1764840144.549013,1,1,4687,585.875
1764840144.5530026,0,0,5313,664.125
1764840144.5569985,0,0,-1221,-152.625
1764840144.5610125,0,0,-1867,-233.375
1764840144.5650403,0,0,1310,163.750
1764840144.5690227,1,1,4910,613.750
1764840144.5730085,0,0,5459,682.375
1764840144.5770001,0,0,-928,-116.000
1764840144.5810134,0,0,-1656,-207.000
1764840144.5850139,0,0,491,61.375
1764840144.5890117,1,1,4371,546.375
1764840144.5930035,0,0,5491,686.375
1764840144.5969956,0,0,-914,-114.250
1764840144.601014,0,0,-1792,-224.000
1764840144.6050146,0,0,858,107.250
1764840144.6090133,1,1,4595,574.375
1764840144.613015,0,0,5683,710.375
1764840144.6170099,0,0,-808,-101.000
1764840144.621018,0,0,-1763,-220.375
1764840144.6250157,0,0,682,85.250
1764840144.6290133,1,1,4453,556.625
1764840144.6330132,0,0,5747,718.375
1764840144.6370268,0,0,-778,-97.250
1764840144.6410217,0,0,-1873,-234.125
1764840144.6450121,0,0,796,99.500
1764840144.649013,1,1,4498,562.250
1764840144.6530123,0,0,5850,731.250
1764840144.6570108,0,0,-609,-76.125
1764840144.661016,0,0,-1710,-213.750
1764840144.6650121,0,0,418,52.250
1764840144.669013,1,1,4220,527.500
1764840144.6730165,0,0,5838,729.750
1764840144.677012,0,0,-468,-58.500
1764840144.6810186,0,0,-1475,-184.375
1764840144.6850133,0,0,-234,-29.250
1764840144.6890125,1,1,3723,465.375
1764840144.6931138,0,0,5814,726.750
1764840144.6970255,0,0,-351,-43.875
1764840144.7010157,0,0,-1619,-202.375
1764840144.7049963,0,0,88,11.000
1764840144.7090104,1,1,3959,494.875
1764840144.7130265,0,0,5980,747.500
1764840144.717011,0,0,-195,-24.375
1764840144.7210155,0,0,-1629,-203.625
1764840144.7249968,0,0,-15,-1.875
1764840144.7289975,1,1,3864,483.000
1764840144.7330172,0,0,6033,754.125
1764840144.7370515,0,0,15,1.875
1764840144.7410169,0,0,-1512,-189.000
1764840144.7450104,0,0,-299,-37.375
1764840144.749013,1,1,3619,452.375
1764840144.7530146,0,0,6016,752.000
1764840144.7570121,0,0,228,28.500
1764840144.7610168,0,0,-1788,-223.500
1764840144.7650106,0,0,-60,-7.500
1764840144.7690132,1,1,3793,474.125
1764840144.773012,0,0,6120,765.000
1764840144.7770119,0,0,391,48.875
1764840144.7810097,0,0,-1616,-202.000
1764840144.7850077,0,0,-397,-49.625
1764840144.7890072,1,1,3501,437.625
1764840144.7930145,0,0,6068,758.500
1764840144.7970116,0,0,625,78.125
1764840144.8010085,0,0,-1847,-230.875
1764840144.8050158,0,0,-233,-29.125
1764840144.8090036,1,1,3618,452.250
1764840144.8129928,0,0,6147,768.375
1764840144.8169942,0,0,900,112.500
1764840144.8210096,0,0,-1883,-235.375
1764840144.825009,0,0,-338,-42.250
1764840144.8290083,1,1,3507,438.375
1764840144.8330007,0,0,6124,765.500
1764840144.8369944,0,0,1086,135.750
1764840144.8410127,0,0,-1729,-216.125
1764840144.8450093,0,0,-585,-73.125
1764840144.8490062,1,1,3277,409.625
1764840144.8530087,0,0,6058,757.250
1764840144.8570085,0,0,1311,163.875
1764840144.8610153,0,0,-1844,-230.500
1764840144.8650072,0,0,-569,-71.125
1764840144.8690083,1,1,3271,408.875
1764840144.8730102,0,0,6062,757.750
1764840144.8770082,0,0,1499,187.375
1764840144.8810208,0,0,-1648,-206.000
1764840144.8850124,0,0,-855,-106.875
1764840144.889007,1,1,2988,373.500
1764840144.8931022,0,0,5964,745.500
1764840144.8970237,0,0,1735,216.875
1764840144.9010153,0,0,-1724,-215.500
1764840144.9049945,0,0,-895,-111.875
1764840144.908993,1,1,2935,366.875
1764840144.913008,0,0,5947,743.375
1764840144.9170084,0,0,1962,245.250
1764840144.921012,0,0,-1788,-223.500
1764840144.924993,0,0,-893,-111.625
1764840144.9289932,1,1,2921,365.125
1764840144.9330142,0,0,5943,742.875
1764840144.9370084,0,0,2184,273.000
1764840144.9410274,0,0,-1720,-215.000
1764840144.9450111,0,0,-1016,-127.000
1764840144.9490094,1,1,2782,347.750
1764840144.953014,0,0,5879,734.875
1764840144.9570076,0,0,2385,298.125
1764840144.96101,0,0,-1495,-186.875
1764840144.9649947,0,0,-1280,-160.000
1764840144.9690003,1,1,2473,309.125
1764840144.9729962,0,0,5741,717.625
1764840144.9769914,0,0,2634,329.250
1764840144.9810007,0,0,-1903,-237.875
1764840144.9850101,0,0,-1005,-125.625
1764840144.9890096,1,1,2766,345.750
1764840144.993011,0,0,5857,732.125
1764840144.9970028,0,0,2863,357.875
1764840145.0010114,0,0,-1663,-207.875
1764840145.0050087,0,0,-1242,-155.250
1764840145.009006,1,1,2489,311.125
1764840145.0130188,0,0,5717,714.625
1764840145.0170133,0,0,3082,385.250
1764840145.0210094,0,0,-1813,-226.625
1764840145.0249908,0,0,-1175,-146.875
1764840145.0289924,1,1,2549,318.625
1764840145.0330105,0,0,5721,715.125
1764840145.0370102,0,0,3254,406.750
1764840145.0410252,0,0,-1888,-236.000
1764840145.044991,0,0,-1164,-145.500
1764840145.048992,1,1,2549,318.625
1764840145.053014,0,0,5694,711.750
1764840145.0570116,0,0,3455,431.875
1764840145.0610101,0,0,-1372,-171.500
1764840145.0650074,0,0,-1632,-204.000
1764840145.0690088,1,1,1830,228.750
1764840145.0730138,0,0,5333,666.625
1764840145.0770102,0,0,-1364,-170.500
1764840145.0810127,0,0,-1651,-206.375
1764840145.0850062,0,0,1760,220.000
1764840145.0890071,1,1,5290,661.250
1764840145.0931,0,0,3865,483.125
1764840145.0970232,0,0,-1562,-195.250
1764840145.1010144,0,0,-1518,-189.750
1764840145.1049907,0,0,2070,258.750
1764840145.1089885,1,1,5426,678.250
1764840145.1130078,0,0,4079,509.875
1764840145.1170092,0,0,-1403,-175.375
1764840145.1210117,0,0,-1648,-206.000
1764840145.124991,0,0,1824,228.000
1764840145.1289864,1,1,5279,659.875
1764840145.1330082,0,0,4248,531.000
1764840145.1370087,0,0,-1569,-196.125
1764840145.1410284,0,0,-1576,-197.000
1764840145.145008,0,0,1960,245.000
1764840145.1490064,1,1,5321,665.125
1764840145.1530085,0,0,4384,548.000
1764840145.1570039,0,0,-1242,-155.250
1764840145.161014,0,0,-1702,-212.750
1764840145.1650057,0,0,1406,175.750
1764840145.1690037,1,1,5007,625.875
1764840145.1730015,0,0,4540,567.500
1764840145.177004,0,0,-1334,-166.750
1764840145.1810148,0,0,-1721,-215.125
1764840145.1850069,0,0,1518,189.750
1764840145.1890006,1,1,5051,631.375
1764840145.1930087,0,0,4782,597.750
1764840145.1970074,0,0,-1422,-177.750
1764840145.2010143,0,0,-1727,-215.875
1764840145.2049892,0,0,1656,207.000
1764840145.2089896,1,1,5093,636.625
1764840145.213005,0,0,4919,614.875
1764840145.2170079,0,0,-1230,-153.750
1764840145.2210157,0,0,-1749,-218.625
1764840145.224992,0,0,1355,169.375
1764840145.2289903,1,1,4903,612.875
1764840145.2330053,0,0,5051,631.375
1764840145.2370036,0,0,-1150,-143.750
1764840145.2410154,0,0,-1753,-219.125
1764840145.2454555,0,0,1196,149.500
1764840145.24912,1,1,4798,599.750
1764840145.2530296,0,0,5093,636.625
1764840145.2570064,0,0,-1011,-126.375
1764840145.2610073,0,0,-1591,-198.875
1764840145.2650084,0,0,333,41.625
1764840145.2690055,1,1,4216,527.000
1764840145.2730067,0,0,5163,645.375
1764840145.2770002,0,0,-999,-124.875
1764840145.281004,0,0,-1738,-217.250
1764840145.2850096,0,0,911,113.875
1764840145.2890081,1,1,4604,575.500
1764840145.2984462,0,0,-1112,-139.000
1764840145.301036,0,0,-1704,-213.000
1764840145.3049939,0,0,1675,209.375
1764840145.3089898,1,1,5009,626.125
1764840145.3130112,0,0,5604,700.500
1764840145.3170063,0,0,-839,-104.875
1764840145.321007,0,0,-1679,-209.875
1764840145.3249884,0,0,558,69.750
1764840145.3289893,1,1,4312,539.000
1764840145.3330116,0,0,5594,699.250
1764840145.3370042,0,0,-751,-93.875
1764840145.3410082,0,0,-1691,-211.375
1764840145.3450365,0,0,518,64.750
1764840145.349007,1,1,4263,532.875
1764840145.353011,0,0,5710,713.750
1764840145.3570051,0,0,-684,-85.500
1764840145.3610117,0,0,-1805,-225.625
1764840145.3650033,0,0,687,85.875
1764840145.3690028,1,1,4349,543.625
1764840145.3730042,0,0,5817,727.125
1764840145.3770041,0,0,-550,-68.750
1764840145.3810089,0,0,-1748,-218.500
1764840145.3850012,0,0,490,61.250
1764840145.3890004,1,1,4194,524.250
1764840145.3930078,0,0,5843,730.375
1764840145.3970058,0,0,-402,-50.250
1764840145.4010117,0,0,-1569,-196.125
1764840145.4050004,0,0,-7,-0.875
1764840145.409,1,1,3824,478.000
1764840145.4130054,0,0,5833,729.125
1764840145.4170053,0,0,-262,-32.750
1764840145.421009,0,0,-2007,-250.875
1764840145.4250093,0,0,539,67.375
1764840145.429005,1,1,4189,523.625
1764840145.4329948,0,0,5989,748.625
1764840145.436988,0,0,-100,-12.500
1764840145.441011,0,0,-1479,-184.875
1764840145.4450314,0,0,-266,-33.250
1764840145.4490018,1,1,3581,447.625
1764840145.4529896,0,0,5875,734.375
1764840145.4569879,0,0,58,7.250
1764840145.4610095,0,0,-1418,-177.250
1764840145.4650075,0,0,-419,-52.375
1764840145.4690022,1,1,3448,431.000
1764840145.4729936,0,0,5894,736.750
1764840145.4769886,0,0,234,29.250
1764840145.4810011,0,0,-1413,-176.625
1764840145.485004,0,0,-555,-69.375
1764840145.489,1,1,3325,415.625
1764840145.4930007,0,0,5929,741.125
1764840145.4970853,0,0,524,65.500
1764840145.5010214,0,0,-1600,-200.000
1764840145.5050044,0,0,-389,-48.625
1764840145.509002,1,1,3454,431.750
1764840145.5129998,0,0,6018,752.250
1764840145.5169997,0,0,787,98.375
1764840145.5210087,0,0,-1767,-220.875
1764840145.5249875,0,0,-366,-45.750
1764840145.528985,1,1,3453,431.625
1764840145.5330036,0,0,6042,755.250
1764840145.536998,0,0,1015,126.875
1764840145.5410073,0,0,-2249,-281.125
1764840145.544999,0,0,26,3.250
1764840145.5490396,1,1,3735,466.875
1764840145.552993,0,0,6137,767.125
1764840145.5569804,0,0,1239,154.875
1764840145.5609949,0,0,-1899,-237.375
1764840145.5650022,0,0,-434,-54.250
1764840145.5690005,1,1,3341,417.625
1764840145.5729988,0,0,5999,749.875
1764840145.5769956,0,0,1384,173.000
1764840145.5810037,0,0,-1754,-219.250
1764840145.5849996,0,0,-640,-80.000
1764840145.5889976,1,1,3151,393.875
1764840145.593001,0,0,5937,742.125
1764840145.5969982,0,0,1601,200.125
1764840145.6010041,0,0,-1515,-189.375
1764840145.6049986,0,0,-955,-119.375
1764840145.6090014,1,1,2838,354.750
1764840145.6130028,0,0,5828,728.500
1764840145.6169991,0,0,1910,238.750
1764840145.6210036,0,0,-1826,-228.250
1764840145.6249971,0,0,-791,-98.875
1764840145.6290002,1,1,2984,373.000
1764840145.6330032,0,0,5885,735.625
1764840145.6370113,0,0,2088,261.000
1764840145.641005,0,0,-1927,-240.875
1764840145.644982,0,0,-743,-92.875
1764840145.6489968,1,1,3013,376.625
1764840145.6530015,0,0,5886,735.750
1764840145.6570005,0,0,2330,291.250
1764840145.6609995,0,0,-1717,-214.625
1764840145.6649802,0,0,-1018,-127.250
1764840145.668982,1,1,2725,340.625
1764840145.6730042,0,0,5754,719.250
1764840145.6770022,0,0,2525,315.625
1764840145.6810045,0,0,-1787,-223.375
1764840145.684998,0,0,-1011,-126.375
1764840145.6889973,1,1,2719,339.875
1764840145.6929998,0,0,5739,717.375
1764840145.6970868,0,0,2720,340.000
1764840145.7010164,0,0,-1553,-194.125
1764840145.704983,0,0,-1286,-160.750
1764840145.7090073,1,1,2403,300.375
1764840145.7130063,0,0,5592,699.000
1764840145.7170007,0,0,2988,373.500
1764840145.7210047,0,0,-1969,-246.125
1764840145.7249851,0,0,-1043,-130.375
1764840145.728982,1,1,2652,331.500
1764840145.7330027,0,0,3155,394.375
1764840145.7370038,0,0,-1463,-182.875
1764840145.741006,0,0,-1439,-179.875
1764840145.744999,0,0,2182,272.750
1764840145.7490358,1,1,5452,681.500
1764840145.7530034,0,0,3334,416.750
1764840145.7569978,0,0,-1471,-183.875
1764840145.7610102,0,0,-1490,-186.250
1764840145.765002,0,0,2104,263.000
1764840145.7689958,1,1,5403,675.375
1764840145.772997,0,0,3542,442.750
1764840145.7769995,0,0,-1426,-178.250
1764840145.781006,0,0,-1592,-199.000
1764840145.785002,0,0,1921,240.125
1764840145.789011,1,1,5301,662.625
1764840145.7929926,0,0,3761,470.125
1764840145.79698,0,0,-1369,-171.125
1764840145.8010015,0,0,-1610,-201.250
1764840145.8049948,0,0,1878,234.750
1764840145.8089817,1,1,5265,658.125
1764840145.8129773,0,0,3980,497.500
1764840145.8169782,0,0,-1424,-178.000
1764840145.8209999,0,0,-1594,-199.250
1764840145.825003,0,0,1912,239.000
1764840145.829001,1,1,5261,657.625
1764840145.8330004,0,0,4137,517.125
1764840145.8369966,0,0,-1355,-169.375
1764840145.8410048,0,0,-1657,-207.125
1764840145.845,0,0,1737,217.125
1764840145.849033,1,1,5157,644.625
1764840145.8529966,0,0,4336,542.000
1764840145.8569953,0,0,-1239,-154.875
1764840145.8610039,0,0,-1694,-211.750
1764840145.8649986,0,0,1283,160.375
1764840145.8689983,1,1,4893,611.625
1764840145.873004,0,0,4488,561.000
1764840145.8769972,0,0,-1163,-145.375
1764840145.881002,0,0,-1696,-212.000
1764840145.8849971,0,0,1126,140.750
1764840145.8889966,1,1,4799,599.875
1764840145.8929968,0,0,4698,587.250
1764840145.8970885,0,0,-1284,-160.500
1764840145.9010139,0,0,-1738,-217.250
1764840145.904982,0,0,1460,182.500
1764840145.9089804,1,1,4970,621.250
1764840145.9129977,0,0,4891,611.375
1764840145.9169958,0,0,-1203,-150.375
1764840145.9209998,0,0,-1749,-218.625
1764840145.92498,0,0,1333,166.625
1764840145.9289815,1,1,4874,609.250
1764840145.9329991,0,0,4971,621.375
1764840145.936996,0,0,-1114,-139.250
1764840145.941002,0,0,-1718,-214.750
1764840145.9449942,0,0,1064,133.000
1764840145.9489973,1,1,4700,587.500
1764840145.9530394,0,0,5126,640.750
1764840145.9569983,0,0,-981,-122.625
1764840145.9609966,0,0,-1645,-205.625
1764840145.9649925,0,0,575,71.875
1764840145.9689941,1,1,4381,547.625
1764840145.9729986,0,0,5275,659.375
1764840145.9769962,0,0,-1070,-133.750
1764840145.9809973,0,0,-1801,-225.125
1764840145.9849775,0,0,1081,135.125
1764840145.9889767,1,1,4681,585.125
1764840145.9929965,0,0,5452,681.500
1764840145.9969983,0,0,-997,-124.625
1764840146.0010026,0,0,-1803,-225.375
1764840146.0049934,0,0,1019,127.375
1764840146.0089922,1,1,4618,577.250
1764840146.0129962,0,0,5544,693.000
1764840146.0169966,0,0,-826,-103.250
1764840146.0210001,0,0,-1680,-210.000
1764840146.024993,0,0,564,70.500
1764840146.0289931,1,1,4321,540.125
1764840146.0330029,0,0,5564,695.500
1764840146.0370119,0,0,-712,-89.000
1764840146.041003,0,0,-1428,-178.500
1764840146.0449798,0,0,-361,-45.125
1764840146.0489762,1,1,3612,451.500
1764840146.0530076,0,0,5522,690.250
1764840146.056979,0,0,-629,-78.625
1764840146.0609815,0,0,-1625,-203.125
1764840146.0649796,0,0,266,33.250
1764840146.0689766,1,1,4101,512.625
1764840146.0729954,0,0,5822,727.750
1764840146.0769985,0,0,-521,-65.125
1764840146.081003,0,0,-1802,-225.250
1764840146.0849967,0,0,511,63.875
1764840146.0889966,1,1,4247,530.875
1764840146.092984,0,0,5949,743.625
1764840146.0970829,0,0,-332,-41.500
1764840146.101018,0,0,-1616,-202.000
1764840146.1050014,0,0,102,12.750
1764840146.108999,1,1,3938,492.250
1764840146.1129966,0,0,5937,742.125
1764840146.1169934,0,0,-186,-23.250
1764840146.121001,0,0,-1838,-229.750
1764840146.1249807,0,0,312,39.000
1764840146.1289792,1,1,4066,508.250
1764840146.132997,0,0,6032,754.000
1764840146.1369936,0,0,-31,-3.875
1764840146.1410005,0,0,-1779,-222.375
1764840146.1449947,0,0,154,19.250
1764840146.1489925,1,1,3931,491.375
1764840146.1530068,0,0,6038,754.750
1764840146.1569939,0,0,137,17.125
1764840146.1609974,0,0,-1525,-190.625
1764840146.164993,0,0,-312,-39.000
1764840146.1689925,1,1,3550,443.750
1764840146.172995,0,0,5973,746.625
1764840146.1769907,0,0,348,43.500
1764840146.1809978,0,0,-1496,-187.000
1764840146.1850004,0,0,-473,-59.125
1764840146.1890008,1,1,3400,425.000
1764840146.1929858,0,0,5974,746.750
1764840146.1969757,0,0,572,71.500
1764840146.20099,0,0,-1712,-214.000
1764840146.2049906,0,0,-315,-39.375
1764840146.2089949,1,1,3519,439.875
1764840146.2129831,0,0,6060,757.500
1764840146.216972,0,0,818,102.250
1764840146.2209907,0,0,-1664,-208.000
1764840146.2249768,0,0,-506,-63.250
1764840146.2289772,1,1,3339,417.375
1764840146.2329948,0,0,6022,752.750
1764840146.236996,0,0,1025,128.125
1764840146.2410047,0,0,-1614,-201.750
1764840146.2453725,0,0,-661,-82.625
1764840146.2491102,1,1,3188,398.500
1764840146.2530107,0,0,5993,749.125
1764840146.2570393,0,0,1257,157.125
1764840146.2609956,0,0,-1591,-198.875
1764840146.2649925,0,0,-779,-97.375
1764840146.2689884,1,1,3065,383.125
1764840146.2729926,0,0,5965,745.625
1764840146.2769928,0,0,1528,191.000
1764840146.280993,0,0,-2032,-254.000
1764840146.2849903,0,0,-500,-62.500
1764840146.2889907,1,1,3293,411.625
1764840146.292993,0,0,6048,756.000
1764840146.3023763,0,0,-1025,-128.125
1764840146.3050246,0,0,-1025,-128.125
1764840146.3090034,1,1,2787,348.375
1764840146.3129995,0,0,5858,732.250
1764840146.3169928,0,0,1906,238.250
1764840146.3209958,0,0,-1631,-203.875
1764840146.3249905,0,0,-978,-122.250
1764840146.3289902,1,1,2824,353.000
1764840146.3329923,0,0,5882,735.250
1764840146.3369925,0,0,2234,279.250
1764840146.340997,0,0,-2050,-256.250
1764840146.3449948,0,0,-767,-95.875
1764840146.3489904,1,1,3008,376.000
1764840146.3529913,0,0,5940,742.500
1764840146.357031,0,0,2421,302.625
1764840146.3609996,0,0,-1972,-246.500
1764840146.3649902,0,0,-873,-109.125
1764840146.3689878,1,1,2889,361.125
1764840146.372989,0,0,5873,734.125
1764840146.3769906,0,0,2609,326.125
1764840146.380997,0,0,-1078,-134.750
1764840146.3849895,0,0,2669,333.625
1764840146.3889916,1,1,5764,720.500
1764840146.3929935,0,0,2814,351.750
1764840146.396986,0,0,-1627,-203.375
1764840146.4009974,0,0,-1257,-157.125
1764840146.4049907,0,0,2452,306.500
1764840146.4089892,1,1,5652,706.500
1764840146.4129872,0,0,3027,378.375
1764840146.4169872,0,0,-1414,-176.750
1764840146.4209964,0,0,-1520,-190.000
1764840146.4249902,0,0,2092,261.500
1764840146.42899,1,1,5477,684.625
1764840146.4329915,0,0,3208,401.000
1764840146.4369895,0,0,-1544,-193.000
1764840146.4410005,0,0,-1424,-178.000
1764840146.444998,0,0,2224,278.000
1764840146.4489977,1,1,5530,691.250
1764840146.4529784,0,0,3500,437.500
1764840146.4570067,0,0,-1602,-200.250
1764840146.4609947,0,0,-1411,-176.375
1764840146.4649901,0,0,2228,278.500
1764840146.4689898,1,1,5509,688.625
1764840146.4729826,0,0,3682,460.250
1764840146.4769726,0,0,-1399,-174.875
1764840146.481052,0,0,-1619,-202.375
1764840146.4849966,0,0,1864,233.000
1764840146.488985,1,1,5313,664.125
1764840146.4929745,0,0,3893,486.625
1764840146.4969716,0,0,-1461,-182.625
1764840146.5010562,0,0,-1573,-196.625
1764840146.5050097,0,0,1970,246.250
1764840146.5089831,1,1,5345,668.125
1764840146.5129757,0,0,4077,509.625
1764840146.5169702,0,0,-1424,-178.000
1764840146.5209818,0,0,-1624,-203.000
1764840146.5249853,0,0,1867,233.375
1764840146.5289812,1,1,5271,658.875
1764840146.5329726,0,0,4261,532.625
1764840146.5369692,0,0,-1381,-172.625
1764840146.540998,0,0,-1670,-208.750
1764840146.544986,0,0,1748,218.500
1764840146.5489824,1,1,5186,648.250
1764840146.5529752,0,0,4443,555.375
1764840146.556969,0,0,-1346,-168.250
1764840146.5610297,0,0,-1701,-212.625
1764840146.5650322,0,0,1635,204.375
1764840146.56903,1,1,5100,637.500
1764840146.5730276,0,0,4528,566.000
1764840146.5770247,0,0,-1197,-149.625
1764840146.5810366,0,0,-1692,-211.500
1764840146.5850558,0,0,1168,146.000
1764840146.5890408,1,1,4828,603.500
1764840146.5930192,0,0,4717,589.625
1764840146.5970066,0,0,-1278,-159.750
1764840146.6010246,0,0,-1742,-217.750
1764840146.6050296,0,0,1497,187.125
1764840146.6090295,1,1,4996,624.500
1764840146.613016,0,0,4923,615.375
1764840146.6170063,0,0,-1152,-144.000
1764840146.6210403,0,0,-1726,-215.750
1764840146.625033,0,0,1152,144.000
1764840146.6290274,1,1,4778,597.250
1764840146.6330314,0,0,5072,634.000
1764840146.6370249,0,0,-1378,-172.250
1764840146.6410313,0,0,-1784,-223.000
1764840146.6450238,0,0,1534,191.750
1764840146.6490252,1,1,4959,619.875
1764840146.653028,0,0,5201,650.125
1764840146.6570227,0,0,-1079,-134.875
1764840146.6610875,0,0,-1738,-217.250
1764840146.6649861,0,0,1019,127.375
1764840146.6689816,1,1,4641,580.125
1764840146.672987,0,0,5267,658.375
1764840146.6769798,0,0,-984,-123.000
1764840146.680987,0,0,-1733,-216.625
1764840146.6849647,0,0,919,114.875
1764840146.688967,1,1,4562,570.250
1764840146.6929853,0,0,5378,672.250
1764840146.6969817,0,0,-927,-115.875
1764840146.701058,0,0,-1718,-214.750
1764840146.7049901,0,0,773,96.625
1764840146.708989,1,1,4451,556.375
1764840146.7129772,0,0,5527,690.875
1764840146.716966,0,0,-838,-104.750
1764840146.7209756,0,0,-1716,-214.500
1764840146.7249815,0,0,649,81.125
1764840146.7289822,1,1,4350,543.750
1764840146.7329705,0,0,5627,703.375
1764840146.7369668,0,0,-842,-105.250
1764840146.7410097,0,0,-1956,-244.500
1764840146.7449813,0,0,1137,142.125
1764840146.7489812,1,1,4619,577.375
1764840146.7529879,0,0,5752,719.000
1764840146.756983,0,0,-617,-77.125
1764840146.7610419,0,0,-1616,-202.000
1764840146.7649808,0,0,289,36.125
1764840146.768978,1,1,4054,506.750
1764840146.7729828,0,0,5697,712.125
1764840146.776983,0,0,-543,-67.875
1764840146.7809877,0,0,-1620,-202.500
1764840146.784977,0,0,256,32.000
1764840146.7889783,1,1,4020,502.500
1764840146.792982,0,0,5788,723.500
1764840146.7969801,0,0,-408,-51.000
1764840146.8009849,0,0,-1601,-200.125
1764840146.804964,0,0,127,15.875
1764840146.8089628,1,1,3911,488.875
1764840146.8129797,0,0,5863,732.875
1764840146.8169818,0,0,-226,-28.250
1764840146.8209863,0,0,-1746,-218.250
1764840146.8249807,0,0,282,35.250
1764840146.8289802,1,1,3998,499.750
1764840146.8329813,0,0,5956,744.500
1764840146.8369799,0,0,-44,-5.500
1764840146.8409848,0,0,-1654,-206.750
1764840146.8449783,0,0,32,4.000
1764840146.8489773,1,1,3797,474.625
1764840146.852982,0,0,5943,742.875
1764840146.8569872,0,0,143,17.875
1764840146.8609955,0,0,-1742,-217.750
1764840146.8649693,0,0,33,4.125
1764840146.8689616,1,1,3775,471.875
1764840146.872979,0,0,5980,747.500
1764840146.8769772,0,0,317,39.625
1764840146.880981,0,0,-1682,-210.250
1764840146.8849647,0,0,-165,-20.625
1764840146.8889637,1,1,3617,452.125
1764840146.8929799,0,0,5971,746.375
1764840146.896978,0,0,393,49.125
1764840146.9010587,0,0,-1085,-135.625
1764840146.9049895,0,0,-1153,-144.125
1764840146.9089808,1,1,2685,335.625
1764840146.912969,0,0,5679,709.875
1764840146.9169607,0,0,771,96.375
1764840146.920973,0,0,-1781,-222.625
1764840146.9249804,0,0,-342,-42.750
1764840146.9289792,1,1,3458,432.250
1764840146.9329672,0,0,6031,753.875
1764840146.9369624,0,0,1048,131.000
1764840146.941004,0,0,-2003,-250.375
1764840146.9449792,0,0,-258,-32.250
1764840146.9489808,1,1,3503,437.875
1764840146.9529831,0,0,6056,757.000
1764840146.956976,0,0,1242,155.250
1764840146.9609842,0,0,-1651,-206.375
1764840146.9650142,0,0,-674,-84.250
1764840146.9689794,1,1,3134,391.750
1764840146.9729776,0,0,5935,741.875
1764840146.9769764,0,0,1459,182.375
1764840146.980977,0,0,-1485,-185.625
1764840146.984979,0,0,-950,-118.750
1764840146.9889877,1,1,2857,357.125
1764840146.9929745,0,0,5844,730.500
1764840146.996963,0,0,1729,216.125
1764840147.000962,0,0,-1878,-234.750
1764840147.0049598,0,0,-678,-84.750
1764840147.0089622,1,1,3103,387.875
1764840147.0129635,0,0,5945,743.125
1764840147.0169628,0,0,1959,244.875
1764840147.020998,0,0,-1721,-215.125
1764840147.0249753,0,0,-908,-113.500
1764840147.0289776,1,1,2869,358.625
1764840147.0329823,0,0,2182,272.750
1764840147.0369754,0,0,-1602,-200.250
1764840147.040979,0,0,-1101,-137.625
1764840147.0449753,0,0,2653,331.625
1764840147.0489736,1,1,5753,719.125
1764840147.0529656,0,0,2401,300.125
1764840147.0569608,0,0,-1913,-239.125
1764840147.0609746,0,0,-902,-112.750
1764840147.0650089,0,0,2845,355.625
1764840147.0689747,1,1,5821,727.625
1764840147.0729814,0,0,2551,318.875
1764840147.0769775,0,0,-1298,-162.250
1764840147.080984,0,0,-1518,-189.750
1764840147.0849748,0,0,2104,263.000
1764840147.088973,1,1,5497,687.125
1764840147.0929759,0,0,2825,353.125
1764840147.096978,0,0,-1506,-188.250
1764840147.101054,0,0,-1354,-169.250
1764840147.104987,0,0,2330,291.250
1764840147.1089783,1,1,5602,700.250
1764840147.112971,0,0,3080,385.000
1764840147.1169622,0,0,-1518,-189.750
1764840147.1209772,0,0,-1424,-178.000
1764840147.1249785,0,0,2229,278.625
1764840147.128974,1,1,5544,693.000
1764840147.1329632,0,0,3303,412.875
1764840147.1369617,0,0,-1482,-185.250
1764840147.1409886,0,0,-1504,-188.000
1764840147.1449816,0,0,2103,262.875
1764840147.1489763,1,1,5467,683.375
1764840147.1529794,0,0,3556,444.500
1764840147.1569736,0,0,-2047,-255.875
1764840147.1609848,0,0,-1132,-141.500
1764840147.1650147,0,0,2547,318.375
1764840147.1689808,1,1,5642,705.250
1764840147.1729643,0,0,3731,466.375
1764840147.1769571,0,0,-1573,-196.625
1764840147.180973,0,0,-1462,-182.750
1764840147.1849756,0,0,2138,267.250
1764840147.1889756,1,1,5422,677.750
1764840147.1929657,0,0,3873,484.125
1764840147.1969595,0,0,-1386,-173.250
1764840147.2009873,0,0,-1626,-203.250
1764840147.2049792,0,0,1845,230.625
1764840147.2089777,1,1,5260,657.500
1764840147.212976,0,0,4078,509.750
1764840147.216973,0,0,-1395,-174.375
1764840147.2209768,0,0,-1635,-204.375
1764840147.2249753,0,0,1838,229.750
1764840147.228975,1,1,5233,654.125
1764840147.2329798,0,0,4290,536.250
1764840147.2369735,0,0,-1512,-189.000
1764840147.2409842,0,0,-1604,-200.500
1764840147.2453444,0,0,1894,236.750
1764840147.2490819,1,1,5233,654.125
1764840147.2529945,0,0,4451,556.375
1764840147.2569723,0,0,-1619,-202.375
1764840147.2609727,0,0,-1581,-197.625
1764840147.2649739,0,0,1924,240.500
1764840147.2690153,1,1,5216,652.000
1764840147.2729754,0,0,4608,576.000
1764840147.276973,0,0,-1282,-160.250
1764840147.2809744,0,0,-1719,-214.875
1764840147.284973,0,0,1475,184.375
1764840147.288975,1,1,4952,619.000
1764840147.2929673,0,0,4712,589.000
1764840147.2969606,0,0,-1255,-156.875
1764840147.3063476,0,0,1314,164.250
1764840147.3089917,1,1,4845,605.625
1764840147.3130217,0,0,4959,619.875
1764840147.317006,0,0,-1447,-180.875
1764840147.3209736,0,0,-1231,-153.875
1764840147.3249705,0,0,2266,283.250
1764840147.3289692,1,1,5271,658.875
1764840147.332972,0,0,5015,626.875
1764840147.3369691,0,0,-1232,-154.000
1764840147.3409915,0,0,-1759,-219.875
1764840147.3449733,0,0,1408,176.000
1764840147.3489707,1,1,4820,602.500
1764840147.3529756,0,0,5076,634.500
1764840147.3569708,0,0,-1037,-129.625
1764840147.3609796,0,0,-1687,-210.875
1764840147.3649669,0,0,826,103.250
1764840147.369004,1,1,4463,557.875
1764840147.3729718,0,0,5192,649.000
1764840147.3769696,0,0,-927,-115.875
1764840147.3809748,0,0,-1679,-209.875
1764840147.3849669,0,0,684,85.500
1764840147.3889678,1,1,4360,545.000
1764840147.392973,0,0,5336,667.000
1764840147.3969715,0,0,-874,-109.250
1764840147.4009795,0,0,-1710,-213.750
1764840147.4049692,0,0,718,89.750
1764840147.4089682,1,1,4367,545.875
1764840147.4129663,0,0,5462,682.750
1764840147.41697,0,0,-933,-116.625
1764840147.4209764,0,0,-1845,-230.625
1764840147.42497,0,0,1009,126.125
1764840147.4289649,1,1,4522,565.250
1764840147.4329715,0,0,5593,699.125
1764840147.4369695,0,0,-688,-86.000
1764840147.4409723,0,0,-1668,-208.500
1764840147.444968,0,0,482,60.250
1764840147.4489675,1,1,4169,521.125
1764840147.4529684,0,0,5618,702.250
1764840147.4569654,0,0,-638,-79.750
1764840147.4609957,0,0,-1661,-207.625
1764840147.4649727,0,0,398,49.750
1764840147.4690063,1,1,4096,512.000
1764840147.472976,0,0,5709,713.625
1764840147.4769673,0,0,-564,-70.500
1764840147.4809763,0,0,-1811,-226.375
1764840147.4849765,0,0,631,78.875
1764840147.4889712,1,1,4229,528.625
1764840147.4929667,0,0,5819,727.375
1764840147.4969678,0,0,-330,-41.250
1764840147.5009828,0,0,-1525,-190.625
1764840147.505041,0,0,-73,-9.125
1764840147.5089843,1,1,3721,465.125
1764840147.5129666,0,0,5764,720.500
1764840147.5169635,0,0,-229,-28.625
1764840147.52102,0,0,-1611,-201.375
1764840147.525005,0,0,79,9.875
1764840147.5289798,1,1,3820,477.500
1764840147.5329702,0,0,5866,733.250
1764840147.5369625,0,0,-44,-5.500
1764840147.5409806,0,0,-1700,-212.500
1764840147.5449777,0,0,119,14.875
1764840147.5489776,1,1,3830,478.750
1764840147.5529678,0,0,5921,740.125
1764840147.5569627,0,0,147,18.375
1764840147.56098,0,0,-1800,-225.000
1764840147.5649908,0,0,111,13.875
1764840147.568974,1,1,3801,475.125
1764840147.5730348,0,0,5937,742.125
1764840147.5770211,0,0,251,31.375
1764840147.5810266,0,0,-1574,-196.750
1764840147.585026,0,0,-239,-29.875
1764840147.5890281,1,1,3526,440.750
1764840147.5930126,0,0,5916,739.500
1764840147.5970128,0,0,581,72.625
1764840147.6010222,0,0,-1924,-240.500
1764840147.6050208,0,0,-22,-2.750
1764840147.60902,1,1,3670,458.750
1764840147.613018,0,0,5974,746.750
1764840147.6169975,0,0,706,88.250
1764840147.6210344,0,0,-1681,-210.125
1764840147.625024,0,0,-345,-43.125
1764840147.62902,1,1,3400,425.000
1764840147.6330237,0,0,5911,738.875
1764840147.6370192,0,0,976,122.000
1764840147.6410258,0,0,-2228,-278.500
1764840147.645021,0,0,52,6.500
1764840147.6490202,1,1,3680,460.000
1764840147.6530168,0,0,5998,749.750
1764840147.657018,0,0,1095,136.875
1764840147.6610231,0,0,-1719,-214.875
1764840147.665018,0,0,-490,-61.250
1764840147.6690202,1,1,3239,404.875
1764840147.6730232,0,0,5860,732.500
1764840147.676976,0,0,1331,166.375
1764840147.6809788,0,0,-807,-100.875
1764840147.6849759,0,0,2942,367.750
1764840147.6889722,1,1,5764,720.500
1764840147.692977,0,0,1585,198.125
1764840147.696971,0,0,-1451,-181.375
1764840147.7009714,0,0,-975,-121.875
1764840147.7050514,0,0,2769,346.125
1764840147.708991,1,1,5711,713.875
1764840147.7129724,0,0,1871,233.875
1764840147.716955,0,0,-1799,-224.875
1764840147.7209728,0,0,-772,-96.500
1764840147.724974,0,0,2952,369.000
1764840147.7289743,1,1,5783,722.875
1764840147.7329621,0,0,2126,265.750
1764840147.7369587,0,0,-1702,-212.750
1764840147.7409716,0,0,-917,-114.625
1764840147.744974,0,0,2803,350.375
1764840147.7489736,1,1,5716,714.500
1764840147.7529771,0,0,2334,291.750
1764840147.7569754,0,0,-1878,-234.750
1764840147.7609792,0,0,-849,-106.125
1764840147.76497,0,0,2854,356.750
1764840147.7689698,1,1,5724,715.500
1764840147.773016,0,0,2501,312.625
1764840147.7769744,0,0,-1695,-211.875
1764840147.7809792,0,0,-1033,-129.125
1764840147.7849722,0,0,2661,332.625
1764840147.7889674,1,1,5646,705.750
1764840147.7929742,0,0,2587,323.375
1764840147.7969742,0,0,-1135,-141.875
1764840147.8009758,0,0,-1670,-208.750
1764840147.8049529,0,0,1240,155.000
1764840147.8089528,1,1,4953,619.125
1764840147.812973,0,0,2963,370.375
1764840147.8169715,0,0,-1905,-238.125
1764840147.8209789,0,0,-1092,-136.500
1764840147.8249726,0,0,2598,324.750
1764840147.8289697,1,1,5642,705.250
1764840147.8329725,0,0,3269,408.625
1764840147.8369713,0,0,-1622,-202.750
1764840147.840979,0,0,-1337,-167.125
1764840147.8449733,0,0,2312,289.000
1764840147.8489695,1,1,5495,686.875
1764840147.8529673,0,0,3484,435.500
1764840147.85697,0,0,-1597,-199.625
1764840147.8609784,0,0,-1391,-173.875
1764840147.8649738,0,0,2227,278.375
1764840147.8689694,1,1,5433,679.125
1764840147.872987,0,0,3698,462.250
1764840147.8769739,0,0,-1728,-216.000
1764840147.8809772,0,0,-1357,-169.625
1764840147.8849707,0,0,2251,281.375
1764840147.8889787,1,1,5412,676.500
1764840147.892967,0,0,3921,490.125
1764840147.8969524,0,0,-1945,-243.125
1764840147.9009728,0,0,-1281,-160.125
1764840147.9050534,0,0,2321,290.125
1764840147.908985,1,1,5405,675.625
1764840147.9129672,0,0,4032,504.000
1764840147.9169528,0,0,-1357,-169.625
1764840147.9209726,0,0,-1642,-205.250
1764840147.9249723,0,0,1761,220.125
1764840147.9289715,1,1,5115,639.375
1764840147.9329615,0,0,4197,524.625
1764840147.936951,0,0,-1426,-178.250
1764840147.9409845,0,0,-1624,-203.000
1764840147.9449756,0,0,1830,228.750
1764840147.948984,1,1,5125,640.625
1764840147.9529738,0,0,4372,546.500
1764840147.9569705,0,0,-1414,-176.750
1764840147.9609756,0,0,-1641,-205.125
1764840147.9649827,0,0,1795,224.375
1764840147.9689715,1,1,5083,635.375
1764840147.97298,0,0,4506,563.250
1764840147.9769745,0,0,-1140,-142.500
1764840147.9809725,0,0,-1682,-210.250
1764840147.9849544,0,0,1064,133.000
1764840147.988956,1,1,4675,584.375
1764840147.9929721,0,0,4604,575.500
1764840147.9969704,0,0,-1093,-136.625
1764840148.0009744,0,0,-1663,-207.875
1764840148.0049667,0,0,817,102.125
1764840148.0089679,1,1,4527,565.875
1764840148.0129712,0,0,4811,601.375
1764840148.0169654,0,0,-1163,-145.375
1764840148.0209696,0,0,-1718,-214.750
1764840148.0249498,0,0,1126,140.750
1764840148.028949,1,1,4705,588.125
1764840148.0329688,0,0,5049,631.125
1764840148.0369687,0,0,-1042,-130.250
1764840148.0409725,0,0,-1676,-209.500
1764840148.0449672,0,0,751,93.875
1764840148.0489666,1,1,4462,557.750
1764840148.0529585,0,0,5174,646.750
1764840148.0569515,0,0,-1047,-130.875
1764840148.0609577,0,0,-1752,-219.000
1764840148.0649638,0,0,1021,127.625
1764840148.0689623,1,1,4611,576.375
1764840148.0729864,0,0,5347,668.375
1764840148.0769725,0,0,-1093,-136.625
1764840148.0809736,0,0,-1818,-227.250
1764840148.0849626,0,0,1116,139.500
1764840148.0889633,1,1,4643,580.375
1764840148.092971,0,0,5465,683.125
1764840148.096966,0,0,-962,-120.250
1764840148.1009698,0,0,-1793,-224.125
1764840148.1050525,0,0,962,120.250
1764840148.1089792,1,1,4524,565.500
1764840148.1129646,0,0,5554,694.250
1764840148.1169522,0,0,-860,-107.500
1764840148.1209736,0,0,-1805,-225.625
1764840148.1249695,0,0,878,109.750
1764840148.1289656,1,1,4443,555.375
1764840148.1329577,0,0,5632,704.000
1764840148.1369507,0,0,-689,-86.125
1764840148.1409826,0,0,-1713,-214.125
1764840148.1449697,0,0,568,71.000
1764840148.1489675,1,1,4224,528.000
1764840148.1529691,0,0,5685,710.625
1764840148.156968,0,0,-674,-84.250
1764840148.1609764,0,0,-1891,-236.375
1764840148.1649694,0,0,786,98.250
1764840148.168963,1,1,4336,542.000
1764840148.1729565,0,0,5780,722.500
1764840148.1769652,0,0,-508,-63.500
1764840148.1809733,0,0,-1704,-213.000
1764840148.1849666,0,0,413,51.625
1764840148.188965,1,1,4071,508.875
1764840148.1929665,0,0,5790,723.750
1764840148.1969697,0,0,-388,-48.500
1764840148.20098,0,0,-2035,-254.375
1764840148.204955,0,0,704,88.000
1764840148.2089517,1,1,4233,529.125
1764840148.2129714,0,0,5881,735.125
1764840148.2169673,0,0,-235,-29.375
1764840148.2209713,0,0,-2001,-250.125
1764840148.2249515,0,0,562,70.250
1764840148.228953,1,1,4110,513.750
1764840148.2329683,0,0,5892,736.500
1764840148.236967,0,0,-69,-8.625
1764840148.2409778,0,0,-1713,-214.125
1764840148.2453523,0,0,196,24.500
1764840148.249082,1,1,3834,479.250
1764840148.2529876,0,0,5857,732.125
1764840148.2569654,0,0,129,16.125
1764840148.2609665,0,0,-2130,-266.250
1764840148.2649517,0,0,450,56.250
1764840148.2689526,1,1,3982,497.750
1764840148.2729537,0,0,5914,739.250
1764840148.2769916,0,0,247,30.875
1764840148.2809618,0,0,-1732,-216.500
1764840148.2849698,0,0,28,3.500
1764840148.2889664,1,1,3669,458.625
1764840148.2929688,0,0,5858,732.250
1764840148.2969673,0,0,458,57.250
1764840148.3009677,0,0,-1528,-191.000
1764840148.3103626,0,0,5805,725.625
1764840148.312996,0,0,5805,725.625
1764840148.3169723,0,0,879,109.875
1764840148.32097,0,0,-2164,-270.500
1764840148.3249493,0,0,459,57.375
1764840148.328951,1,1,3899,487.375
1764840148.3329682,0,0,833,104.125
1764840148.3369653,0,0,-1444,-180.500
1764840148.340967,0,0,-680,-85.000
1764840148.344946,0,0,3041,380.125
1764840148.3489485,1,1,5697,712.125
1764840148.3529682,0,0,1093,136.625
1764840148.3569682,0,0,-1412,-176.500
1764840148.3609755,0,0,-836,-104.500
1764840148.3649669,0,0,2893,361.625
1764840148.368965,1,1,5675,709.375
1764840148.3729694,0,0,1345,168.125
1764840148.3770025,0,0,-1646,-205.750
1764840148.3809743,0,0,-662,-82.750
1764840148.3849654,0,0,3044,380.500
1764840148.3889642,1,1,5749,718.625
1764840148.3929706,0,0,1598,199.750
1764840148.3969674,0,0,-1623,-202.875
1764840148.400969,0,0,-804,-100.500
1764840148.4049623,0,0,2904,363.000
1764840148.4089618,1,1,5703,712.875
1764840148.4129899,0,0,1811,226.375
1764840148.4169765,0,0,-1344,-168.000
1764840148.4209712,0,0,-1172,-146.500
1764840148.4249465,0,0,2526,315.750
1764840148.4289427,1,1,5571,696.375
1764840148.4329643,0,0,2143,267.875
1764840148.4369676,0,0,-1606,-200.750
1764840148.440969,0,0,-1022,-127.750
1764840148.4449482,0,0,2673,334.125
1764840148.4489455,1,1,5632,704.000
1764840148.452964,0,0,2404,300.500
1764840148.456964,0,0,-1993,-249.125
1764840148.4609697,0,0,-810,-101.250
1764840148.4649627,0,0,2865,358.125
1764840148.4689639,1,1,5690,711.250
1764840148.472965,0,0,2554,319.250
1764840148.4769626,0,0,-1361,-170.125
1764840148.480973,0,0,-1370,-171.250
1764840148.4849648,0,0,2262,282.750
1764840148.4889624,1,1,5437,679.625
1764840148.4929657,0,0,2786,348.250
1764840148.4969609,0,0,-1565,-195.625
1764840148.5009706,0,0,-1238,-154.750
1764840148.5049639,0,0,2416,302.000
1764840148.5090518,1,1,5501,687.625
1764840148.5129714,0,0,3005,375.625
1764840148.516948,0,0,-1645,-205.625
1764840148.520967,0,0,-1252,-156.500
1764840148.5249643,0,0,2390,298.750
1764840148.5289621,1,1,5473,684.125
1764840148.5329552,0,0,3252,406.500
1764840148.536945,0,0,-1422,-177.750
1764840148.5409946,0,0,-1504,-188.000
1764840148.5449696,0,0,2053,256.625
1764840148.5489655,1,1,5309,663.625
1764840148.552955,0,0,3466,433.250
1764840148.5569456,0,0,-1297,-162.125
1764840148.5609643,0,0,-1650,-206.250
1764840148.5649655,0,0,1621,202.625
1764840148.568964,1,1,5090,636.250
1764840148.572969,0,0,3676,459.500
1764840148.5769608,0,0,-1671,-208.875
1764840148.5810041,0,0,-1385,-173.125
1764840148.58497,0,0,2209,276.125
1764840148.5889735,1,1,5365,670.625
1764840148.5929594,0,0,3900,487.500
1764840148.5969446,0,0,-1545,-193.125
1764840148.6009607,0,0,-1496,-187.000
1764840148.604963,0,0,2049,256.125
1764840148.6089654,1,1,5260,657.500
1764840148.6129558,0,0,4050,506.250
1764840148.6169448,0,0,-1308,-163.500
1764840148.6209633,0,0,-1669,-208.625
1764840148.6249628,0,0,1618,202.250
1764840148.6289616,1,1,5031,628.875
1764840148.6329675,0,0,4276,534.500
1764840148.636966,0,0,-1332,-166.500
1764840148.6409688,0,0,-1682,-210.250
1764840148.6449616,0,0,1645,205.625
1764840148.6489637,1,1,5023,627.875
1764840148.6529694,0,0,4445,555.625
1764840148.6569643,0,0,-1351,-168.875
1764840148.6609676,0,0,-1692,-211.500
1764840148.6649592,0,0,1666,208.250
1764840148.668959,1,1,5021,627.625
1764840148.672966,0,0,4516,564.500
1764840148.6769607,0,0,-1131,-141.375
1764840148.6809845,0,0,-1631,-203.875
1764840148.68496,0,0,617,77.125
1764840148.6889591,1,1,4400,550.000
1764840148.692964,0,0,4666,583.250
1764840148.6969607,0,0,-1153,-144.125
1764840148.7009692,0,0,-1706,-213.250
1764840148.704958,0,0,1112,139.000
1764840148.709047,1,1,4711,588.875
1764840148.712989,0,0,4956,619.500
1764840148.7169502,0,0,-1281,-160.125
1764840148.720969,0,0,-1781,-222.625
1764840148.724961,0,0,1442,180.250
1764840148.7289581,1,1,4873,609.125
1764840148.732947,0,0,5145,643.125
1764840148.7369437,0,0,-1191,-148.875
1764840148.7409625,0,0,-1801,-225.125
1764840148.744965,0,0,1315,164.375
1764840148.74896,1,1,4771,596.375
1764840148.7529624,0,0,5265,658.125
1764840148.7569609,0,0,-963,-120.375
1764840148.7609696,0,0,-1710,-213.750
1764840148.7649598,0,0,808,101.000
1764840148.7689593,1,1,4447,555.875
1764840148.772963,0,0,5307,663.375
1764840148.776973,0,0,-1075,-134.375
1764840148.7810032,0,0,-1833,-229.125
1764840148.784945,0,0,1157,144.625
1764840148.7889404,1,1,4636,579.500
1764840148.7929611,0,0,5460,682.500
1764840148.7969592,0,0,-962,-120.250
1764840148.8009565,0,0,-1820,-227.500
1764840148.8049426,0,0,1024,128.000
1764840148.8089433,1,1,4528,566.000
1764840148.8129601,0,0,5562,695.250
1764840148.816957,0,0,-856,-107.000
1764840148.8209665,0,0,-1814,-226.750
1764840148.824961,0,0,886,110.750
1764840148.828959,1,1,4415,551.875
1764840148.8329604,0,0,5626,703.250
1764840148.8369582,0,0,-786,-98.250
1764840148.8409643,0,0,-1909,-238.625
1764840148.844959,0,0,928,116.000
1764840148.8489609,1,1,4411,551.375
1764840148.852965,0,0,5693,711.625
1764840148.8569572,0,0,-570,-71.250
1764840148.8609626,0,0,-1634,-204.250
1764840148.8649592,0,0,311,38.875
1764840148.8689609,1,1,3993,499.125
1764840148.8729615,0,0,5679,709.875
1764840148.8769546,0,0,-441,-55.125
1764840148.8809628,0,0,-1587,-198.375
1764840148.8849938,0,0,132,16.500
1764840148.888959,1,1,3854,481.750
1764840148.892962,0,0,5729,716.125
1764840148.8969555,0,0,-327,-40.875
1764840148.9009624,0,0,-1631,-203.875
1764840148.9049559,0,0,175,21.875
1764840148.9090483,1,1,3872,484.000
1764840148.9129658,0,0,5818,727.250
1764840148.9169405,0,0,-170,-21.250
1764840148.9209569,0,0,-1680,-210.000
1764840148.9249563,0,0,202,25.250
1764840148.9289563,1,1,3874,484.250
1764840148.9329524,0,0,5872,734.000
1764840148.9369411,0,0,14,1.750
1764840148.940959,0,0,-1741,-217.625
1764840148.9449594,0,0,154,19.250
1764840148.9489615,1,1,3818,477.250
1764840148.9529648,0,0,5897,737.125
1764840148.9569616,0,0,175,21.875
1764840148.960968,0,0,-1505,-188.125
1764840148.9649584,0,0,-298,-37.250
1764840148.9689558,1,1,3464,433.000
1764840148.9729507,0,0,5845,730.625
1764840148.9769418,0,0,435,54.375
1764840148.9809647,0,0,-1688,-211.000
1764840148.9849737,0,0,3533,441.625
1764840148.9889588,1,1,5904,738.000
1764840148.9929652,0,0,665,83.125
1764840148.9969585,0,0,-1804,-225.500
1764840149.000966,0,0,-194,-24.250
1764840149.0049608,0,0,3506,438.250
1764840149.008963,1,1,5914,739.250
1764840149.0129566,0,0,887,110.875
1764840149.0169418,0,0,-1991,-248.875
1764840149.0209594,0,0,-126,-15.750
1764840149.0249557,0,0,3541,442.625
1764840149.0289576,1,1,5935,741.875
1764840149.0329485,0,0,1102,137.750
1764840149.0369394,0,0,-1870,-233.750
1764840149.0409606,0,0,-336,-42.000
1764840149.0449567,0,0,3353,419.125
1764840149.0489507,1,1,5872,734.000
1764840149.0529497,0,0,1279,159.875
1764840149.0569527,0,0,-1665,-208.125
1764840149.0609593,0,0,-592,-74.000
1764840149.0649579,0,0,3125,390.625
1764840149.068957,1,1,5801,725.125
1764840149.0729585,0,0,1506,188.250
1764840149.076953,0,0,-1952,-244.000
1764840149.0809639,0,0,-442,-55.250
1764840149.0849717,0,0,3234,404.250
1764840149.0889556,1,1,5833,729.125
1764840149.0929577,0,0,1680,210.000
1764840149.0969524,0,0,-1532,-191.500
1764840149.100964,0,0,-930,-116.250
1764840149.104955,0,0,2786,348.250
1764840149.10904,1,1,5674,709.250
1764840149.1129625,0,0,1989,248.625
1764840149.1169386,0,0,-2234,-279.250
1764840149.1209624,0,0,-455,-56.875
1764840149.1249566,0,0,3190,398.750
1764840149.1289554,1,1,5804,725.500
1764840149.1329467,0,0,2173,271.625
1764840149.1369357,0,0,-1586,-198.250
1764840149.1409724,0,0,-1046,-130.750
1764840149.1449597,0,0,2638,329.750
1764840149.1489604,1,1,5589,698.625
1764840149.1529574,0,0,2410,301.250
1764840149.1569521,0,0,-1961,-245.125
1764840149.160963,0,0,-830,-103.750
1764840149.1649632,0,0,2832,354.000
1764840149.1689544,1,1,5645,705.625
1764840149.1729581,0,0,2604,325.500
1764840149.176952,0,0,-1910,-238.750
1764840149.1809704,0,0,-912,-114.000
1764840149.184955,0,0,2745,343.125
1764840149.1889687,1,1,5594,699.250
1764840149.192958,0,0,2793,349.125
1764840149.1969645,0,0,-1589,-198.625
1764840149.200959,0,0,-1227,-153.375
1764840149.2049518,0,0,2405,300.625
1764840149.208956,1,1,5437,679.625
1764840149.212964,0,0,3065,383.125
1764840149.2169602,0,0,-1810,-226.250
1764840149.2209787,0,0,-1120,-140.000
1764840149.2249503,0,0,2503,312.875
1764840149.2289486,1,1,5454,681.750
1764840149.2329547,0,0,3269,408.625
1764840149.2369673,0,0,-1976,-247.000
1764840149.240962,0,0,-1076,-134.500
1764840149.2453327,0,0,2535,316.875
1764840149.2490702,1,1,5437,679.625
1764840149.2529802,0,0,3422,427.750
1764840149.2569551,0,0,-1557,-194.625
1764840149.2609568,0,0,-1410,-176.250
1764840149.264951,0,0,2143,267.875
1764840149.26895,1,1,5244,655.500
1764840149.2729537,0,0,3634,454.250
1764840149.2769527,0,0,-1885,-235.625
1764840149.2809565,0,0,-1239,-154.875
1764840149.2849522,0,0,2333,291.625
1764840149.2889907,1,1,5297,662.125
1764840149.2929535,0,0,3784,473.000
1764840149.2969372,0,0,-1385,-173.125
1764840149.3009417,0,0,-1595,-199.375
1764840149.3052392,0,0,1844,230.500
1764840149.315077,0,0,-1387,-173.375
1764840149.3169744,0,0,-1387,-173.375
1764840149.3209689,0,0,49,6.125
1764840149.3249416,0,0,3326,415.750
1764840149.3289378,1,1,5567,695.875
1764840149.3329604,0,0,4043,505.375
1764840149.3369565,0,0,-1279,-159.875
1764840149.340959,0,0,-1645,-205.625
1764840149.3449402,0,0,1645,205.625
1764840149.3489382,1,1,4871,608.875
1764840149.352957,0,0,4262,532.750
1764840149.3569558,0,0,-1341,-167.625
1764840149.3609605,0,0,-1660,-207.500
1764840149.3649654,0,0,1668,208.500
1764840149.3689508,1,1,4858,607.250
1764840149.3729553,0,0,4391,548.875
1764840149.3769534,0,0,-1244,-155.500
1764840149.3809726,0,0,-1692,-211.500
1764840149.3849533,0,0,1435,179.375
1764840149.3889873,1,1,4730,591.250
1764840149.3929589,0,0,4564,570.500
1764840149.3969495,0,0,-1195,-149.375
1764840149.400957,0,0,-1703,-212.875
1764840149.4049518,0,0,1300,162.500
1764840149.4089503,1,1,4645,580.625
1764840149.4129531,0,0,4717,589.625
1764840149.4169567,0,0,-1144,-143.000
1764840149.420958,0,0,-1708,-213.500
1764840149.4249377,0,0,1167,145.875
1764840149.4289327,1,1,4558,569.750
1764840149.432953,0,0,4871,608.875
1764840149.4369493,0,0,-1072,-134.000
1764840149.4409502,0,0,-1712,-214.000
1764840149.444934,0,0,1080,135.000
1764840149.4489346,1,1,4496,562.000
1764840149.4529524,0,0,5017,627.125
1764840149.4569502,0,0,-1004,-125.500
1764840149.4609563,0,0,-1702,-212.750
1764840149.4649544,0,0,871,108.875
1764840149.4689527,1,1,4362,545.250
1764840149.4729583,0,0,5135,641.875
1764840149.4769492,0,0,-1030,-128.750
1764840149.4809525,0,0,-1767,-220.875
1764840149.48495,0,0,1099,137.375
1764840149.48895,1,1,4479,559.875
1764840149.492996,0,0,5285,660.625
1764840149.496949,0,0,-980,-122.500
1764840149.5009534,0,0,-1793,-224.125
1764840149.5049465,0,0,1083,135.375
1764840149.508953,1,1,4449,556.125
1764840149.5130448,0,0,5368,671.000
1764840149.516971,0,0,-775,-96.875
1764840149.5209532,0,0,-1623,-202.875
1764840149.5249426,0,0,407,50.875
1764840149.528935,1,1,4025,503.125
1764840149.5329556,0,0,5404,675.500
1764840149.5369506,0,0,-651,-81.375
1764840149.5409615,0,0,-1505,-188.125
1764840149.544932,0,0,-78,-9.750
1764840149.5489347,1,1,3677,459.625
1764840149.5529573,0,0,5470,683.750
1764840149.5569508,0,0,-598,-74.750
1764840149.5609596,0,0,-1739,-217.375
1764840149.5649474,0,0,557,69.625
1764840149.5689476,1,1,4111,513.875
1764840149.5729556,0,0,5666,708.250
1764840149.5769534,0,0,-457,-57.125
1764840149.5809503,0,0,-1581,-197.625
1764840149.5849485,0,0,75,9.375
1764840149.5889466,1,1,3767,470.875
1764840149.5929532,0,0,5669,708.625
1764840149.5969496,0,0,-331,-41.375
1764840149.6009543,0,0,-1705,-213.125
1764840149.6049442,0,0,332,41.500
1764840149.608946,1,1,3934,491.750
1764840149.6129522,0,0,5775,721.875
1764840149.6169481,0,0,-169,-21.125
1764840149.620954,0,0,-1569,-196.125
1764840149.624945,0,0,9,1.125
1764840149.6289582,1,1,3696,462.000
1764840149.632957,0,0,5792,724.000
1764840149.6369507,0,0,-2051,-256.375
1764840149.6409512,0,0,857,107.125
1764840149.644931,0,0,4219,527.375
1764840149.6489277,1,1,5924,740.500
1764840149.6529477,0,0,179,22.375
1764840149.6569488,0,0,-1715,-214.375
1764840149.6609519,0,0,63,7.875
1764840149.6649323,0,0,3673,459.125
1764840149.6689293,1,1,5807,725.875
1764840149.6729488,0,0,360,45.000
1764840149.6769614,0,0,-1805,-225.625
1764840149.6809561,0,0,72,9.000
1764840149.6849506,0,0,3662,457.750
1764840149.6889477,1,1,5828,728.500
1764840149.6929772,0,0,537,67.125
1764840149.6969478,0,0,-1656,-207.000
1764840149.700956,0,0,-229,-28.625
1764840149.7049496,0,0,3417,427.125
1764840149.7089605,1,1,5779,722.375
1764840149.7130647,0,0,790,98.750
1764840149.71697,0,0,-1564,-195.500
1764840149.7209547,0,0,-484,-60.500
1764840149.724947,0,0,3198,399.750
1764840149.7289355,1,1,5730,716.250
1764840149.7329485,0,0,1032,129.000
1764840149.7369483,0,0,-2018,-252.250
1764840149.7409604,0,0,-157,-19.625
1764840149.7449358,0,0,3439,429.875
1764840149.748934,1,1,5811,726.375
1764840149.7529495,0,0,1181,147.625
1764840149.756947,0,0,-1370,-171.250
1764840149.7609522,0,0,-913,-114.125
1764840149.7649474,0,0,2794,349.250
1764840149.7689528,1,1,5612,701.500
1764840149.772963,0,0,1483,185.375
1764840149.776946,0,0,-1684,-210.500
1764840149.7809482,0,0,-690,-86.250
1764840149.7849326,0,0,2986,373.250
1764840149.7889287,1,1,5695,711.875
1764840149.7929623,0,0,1739,217.375
1764840149.7969484,0,0,-1687,-210.875
1764840149.8009467,0,0,-787,-98.375
1764840149.8049257,0,0,2891,361.375
1764840149.8089285,1,1,5660,707.500
1764840149.8129504,0,0,1971,246.375
1764840149.81695,0,0,-1843,-230.375
1764840149.8209496,0,0,-717,-89.625
1764840149.824944,0,0,2943,367.875
1764840149.828943,1,1,5671,708.875
1764840149.832961,0,0,2202,275.250
1764840149.8369458,0,0,-1717,-214.625
1764840149.8409512,0,0,-934,-116.750
1764840149.8449433,0,0,2725,340.625
1764840149.8489463,1,1,5575,696.875
1764840149.8529508,0,0,2400,300.000
1764840149.8569448,0,0,-1986,-248.250
1764840149.8609455,0,0,-768,-96.000
1764840149.8649426,0,0,2869,358.625
1764840149.8689425,1,1,5615,701.875
1764840149.8729482,0,0,2657,332.125
1764840149.876944,0,0,-1814,-226.750
1764840149.8809452,0,0,-985,-123.125
1764840149.8849423,0,0,2646,330.750
1764840149.888942,1,1,5503,687.875
1764840149.8929493,0,0,2850,356.250
1764840149.8970566,0,0,-1944,-243.000
1764840149.9009988,0,0,-961,-120.125
1764840149.904988,0,0,2656,332.000
1764840149.908988,1,1,5481,685.125
1764840149.913097,0,0,3022,377.750
1764840149.9170086,0,0,-1455,-181.875
1764840149.9209955,0,0,-1388,-173.500
1764840149.9249723,0,0,2178,272.250
1764840149.9289684,1,1,5265,658.125
1764840149.932989,0,0,3271,408.875
1764840149.9369936,0,0,-2155,-269.375
1764840149.9409952,0,0,-748,-93.500
1764840149.9449716,0,0,2833,354.125
1764840149.9489694,1,1,5510,688.750
1764840149.9529917,0,0,3405,425.625
1764840149.9569907,0,0,-1468,-183.500
1764840149.960998,0,0,-1449,-181.125
1764840149.9649901,0,0,2077,259.625
1764840149.9689853,1,1,5164,645.500
1764840149.9729896,0,0,3627,453.375
1764840149.9769838,0,0,-1482,-185.250
1764840149.9809945,0,0,-1482,-185.250
1764840149.9849875,0,0,2019,252.375
1764840149.9889817,1,1,5118,639.750
1764840149.9929922,0,0,3776,472.000
1764840149.996984,0,0,-1293,-161.625
1764840150.0009606,0,0,-1653,-206.625
1764840150.0049317,0,0,1568,196.000
1764840150.0089278,1,1,4895,611.875
1764840150.0129442,0,0,3981,497.625
1764840150.0169425,0,0,-1308,-163.500
1764840150.0209475,0,0,-1650,-206.250
1764840150.0249283,0,0,1657,207.125
1764840150.0289297,1,1,4935,616.875
1764840150.032944,0,0,4232,529.000
1764840150.036944,0,0,-1419,-177.375
1764840150.040945,0,0,-1614,-201.750
1764840150.0449452,0,0,1803,225.375
1764840150.0489447,1,1,4980,622.500
1764840150.0529375,0,0,4381,547.625
1764840150.0569263,0,0,-1362,-170.250
1764840150.060926,0,0,-1653,-206.625
1764840150.0649288,0,0,1727,215.875
1764840150.068928,1,1,4921,615.125
1764840150.0729444,0,0,4515,564.375
1764840150.076943,0,0,-1311,-163.875
1764840150.0809479,0,0,-1694,-211.750
1764840150.0849445,0,0,1607,200.875
1764840150.0889437,1,1,4837,604.625
1764840150.092948,0,0,4679,584.875
1764840150.0969586,0,0,-1536,-192.000
1764840150.1009479,0,0,-1634,-204.250
1764840150.1049426,0,0,1761,220.125
1764840150.108944,1,1,4887,610.875
1764840150.1130412,0,0,4786,598.250
1764840150.1169603,0,0,-1035,-129.375
1764840150.1209447,0,0,-1659,-207.375
1764840150.124926,0,0,747,93.375
1764840150.128925,1,1,4318,539.750
1764840150.1329434,0,0,4912,614.000
1764840150.136943,0,0,-1125,-140.625
1764840150.1409435,0,0,-1752,-219.000
1764840150.1449246,0,0,1205,150.625
1764840150.1489265,1,1,4570,571.250
1764840150.1529477,0,0,5094,636.750
1764840150.1569455,0,0,-1043,-130.375
1764840150.1609483,0,0,-1738,-217.250
1764840150.1649375,0,0,1064,133.000
1764840150.1689384,1,1,4474,559.250
1764840150.1729462,0,0,5181,647.625
1764840150.1769426,0,0,-851,-106.375
1764840150.1809456,0,0,-1643,-205.375
1764840150.184936,0,0,552,69.000
1764840150.1889377,1,1,4156,519.500
1764840150.1929455,0,0,5280,660.000
1764840150.196953,0,0,-856,-107.000
1764840150.2009473,0,0,-1716,-214.500
1764840150.2049396,0,0,749,93.625
1764840150.2089374,1,1,4273,534.125
1764840150.2129452,0,0,5434,679.250
1764840150.2169392,0,0,-739,-92.375
1764840150.2209466,0,0,-1687,-210.875
