Timestamp,LO_plus,LO_minus,Raw_ADC,Voltage_mV
1766253586.7304943,0,0,13199,1649.875
1766253586.7323024,0,0,13204,1650.500
1766253586.7360518,0,0,13207,1650.875
1766253586.7400446,0,0,13207,1650.875
1766253586.7440422,0,0,13204,1650.500
1766253586.7480474,1,1,13199,1649.875
1766253586.7520423,0,0,13203,1650.375
1766253586.7560453,0,0,13206,1650.750
1766253586.760044,0,0,13205,1650.625
1766253586.7640512,0,0,13203,1650.375
1766253586.7680864,1,1,13196,1649.500
1766253586.772053,0,0,13198,1649.750
1766253586.7760496,0,0,13203,1650.375
1766253586.7800517,0,0,13202,1650.250
1766253586.7840464,0,0,13200,1650.000
1766253586.7880538,1,1,13194,1649.250
1766253586.7920501,0,0,13196,1649.500
1766253586.7960553,0,0,13201,1650.125
1766253586.8000417,0,0,13200,1650.000
1766253586.8040414,0,0,13198,1649.750
1766253586.8080523,1,1,13193,1649.125
1766253586.812048,0,0,13195,1649.375
1766253586.8160877,0,0,13198,1649.750
1766253586.820077,0,0,13198,1649.750
1766253586.8240478,0,0,13196,1649.500
1766253586.828048,1,1,13191,1648.875
1766253586.832048,0,0,13193,1649.125
1766253586.8360584,0,0,13196,1649.500
1766253586.840047,0,0,13196,1649.500
1766253586.8440404,0,0,13195,1649.375
1766253586.8480666,1,1,13189,1648.625
1766253586.8520532,0,0,13189,1648.625
1766253586.8560543,0,0,13195,1649.375
1766253586.8600779,0,0,13194,1649.250
1766253586.8640711,0,0,13191,1648.875
1766253586.86805,1,1,13187,1648.375
1766253586.8720393,0,0,13187,1648.375
1766253586.8760464,0,0,13193,1649.125
1766253586.8800535,0,0,13193,1649.125
1766253586.8840504,0,0,13191,1648.875
1766253586.8880472,1,1,13186,1648.250
1766253586.8920374,0,0,13185,1648.125
1766253586.896052,0,0,13191,1648.875
1766253586.9000401,0,0,13191,1648.875
1766253586.9040391,0,0,13190,1648.750
1766253586.9080408,1,1,13186,1648.250
1766253586.9120388,0,0,13185,1648.125
1766253586.9160414,0,0,13190,1648.750
1766253586.9200487,0,0,13190,1648.750
1766253586.9240468,0,0,13188,1648.500
1766253586.928114,1,1,13184,1648.000
1766253586.932108,0,0,13182,1647.750
1766253586.936068,0,0,13187,1648.375
1766253586.9400594,0,0,13188,1648.500
1766253586.9440491,0,0,13185,1648.125
1766253586.9480445,1,1,13182,1647.750
1766253586.9520395,0,0,13180,1647.500
1766253586.956049,0,0,13185,1648.125
1766253586.9600496,0,0,13186,1648.250
1766253586.9640472,0,0,13185,1648.125
1766253586.9680445,1,1,13181,1647.625
1766253586.972039,0,0,13180,1647.500
1766253586.9760425,0,0,13185,1648.125
1766253586.9800475,0,0,13186,1648.250
1766253586.9840493,0,0,13183,1647.875
1766253586.9880981,1,1,13179,1647.375
1766253586.9920535,0,0,13177,1647.125
1766253586.9960508,0,0,13183,1647.875
1766253587.0000453,0,0,13184,1648.000
1766253587.004046,0,0,13181,1647.625
1766253587.0080984,1,1,13178,1647.250
1766253587.0121093,0,0,13175,1646.875
1766253587.0160515,0,0,13181,1647.625
1766253587.020048,0,0,13183,1647.875
1766253587.0240455,0,0,13180,1647.500
1766253587.028043,1,1,13177,1647.125
1766253587.0320394,0,0,13175,1646.875
1766253587.036104,0,0,13180,1647.500
1766253587.0400512,0,0,13181,1647.625
1766253587.0440412,0,0,13179,1647.375
1766253587.0480397,1,1,13176,1647.000
1766253587.0520427,0,0,13173,1646.625
1766253587.056113,0,0,13177,1647.125
1766253587.0600522,0,0,13179,1647.375
1766253587.0640402,0,0,13178,1647.250
1766253587.0680494,1,1,13174,1646.750
1766253587.07205,0,0,13171,1646.375
1766253587.076053,0,0,13177,1647.125
1766253587.0800393,0,0,13179,1647.375
1766253587.0840397,0,0,13177,1647.125
1766253587.088012,1,1,13174,1646.750
1766253587.092039,0,0,13169,1646.125
1766253587.0960436,0,0,13176,1647.000
1766253587.1000512,0,0,13177,1647.125
1766253587.1040473,0,0,13176,1647.000
1766253587.1080437,1,1,13173,1646.625
1766253587.1120384,0,0,13168,1646.000
1766253587.1166065,0,0,13174,1646.750
1766253587.1200671,0,0,13175,1646.875
1766253587.1240418,0,0,13174,1646.750
1766253587.1281056,1,1,13171,1646.375
1766253587.1320505,0,0,13166,1645.750
1766253587.136062,0,0,13173,1646.625
1766253587.1400425,0,0,13175,1646.875
1766253587.1440384,0,0,13173,1646.625
1766253587.148038,1,1,13170,1646.250
1766253587.1520371,0,0,13165,1645.625
1766253587.1560388,0,0,13171,1646.375
1766253587.1600387,0,0,13172,1646.500
1766253587.1640384,0,0,13171,1646.375
1766253587.1680493,1,1,13168,1646.000
1766253587.172048,0,0,13164,1645.500
1766253587.1760502,0,0,13171,1646.375
1766253587.1802557,0,0,13172,1646.500
1766253587.1840627,0,0,13169,1646.125
1766253587.1880493,1,1,13167,1645.875
1766253587.192038,0,0,13163,1645.375
1766253587.1960504,0,0,13168,1646.000
1766253587.200048,0,0,13170,1646.250
1766253587.2040489,0,0,13169,1646.125
1766253587.2080433,1,1,13166,1645.750
1766253587.2120397,0,0,13161,1645.125
1766253587.2160728,0,0,13167,1645.875
1766253587.2200408,0,0,13169,1646.125
1766253587.2240367,0,0,13167,1645.875
1766253587.2280474,1,1,13165,1645.625
1766253587.2320468,0,0,13159,1644.875
1766253587.2360492,0,0,13165,1645.625
1766253587.2400422,0,0,13168,1646.000
1766253587.244118,0,0,13166,1645.750
1766253587.2480597,1,1,13163,1645.375
1766253587.2520387,0,0,13158,1644.750
1766253587.2560697,0,0,13164,1645.500
1766253587.2600489,0,0,13166,1645.750
1766253587.2640467,0,0,13164,1645.500
1766253587.2680428,1,1,13163,1645.375
1766253587.272096,0,0,13157,1644.625
1766253587.276171,0,0,13162,1645.250
1766253587.280148,0,0,13165,1645.625
1766253587.2841408,0,0,13164,1645.500
1766253587.2881553,1,1,13161,1645.125
1766253587.292233,0,0,13156,1644.500
1766253587.296178,0,0,13162,1645.250
1766253587.3001416,0,0,13164,1645.500
1766253587.3041396,0,0,13163,1645.375
1766253587.3081567,1,1,13155,1644.375
1766253587.312172,0,0,13161,1645.125
1766253587.3162363,0,0,13162,1645.250
1766253587.320156,0,0,13162,1645.250
1766253587.3241427,0,0,13160,1645.000
1766253587.3282235,1,1,13154,1644.250
1766253587.3321567,0,0,13160,1645.000
1766253587.336165,0,0,13163,1645.375
1766253587.34048,0,0,13161,1645.125
1766253587.3443387,0,0,13159,1644.875
1766253587.3483956,1,1,13153,1644.125
1766253587.352181,0,0,13157,1644.625
1766253587.3561554,0,0,13161,1645.125
1766253587.3601472,0,0,13160,1645.000
1766253587.364143,0,0,13158,1644.750
1766253587.3681405,1,1,13154,1644.250
1766253587.3721392,0,0,13158,1644.750
1766253587.3764045,0,0,13161,1645.125
1766253587.380213,0,0,13159,1644.875
1766253587.3841665,0,0,13157,1644.625
1766253587.3881505,1,1,13152,1644.000
1766253587.3921385,0,0,13156,1644.500
1766253587.3961494,0,0,13159,1644.875
1766253587.4001422,0,0,13159,1644.875
1766253587.40414,0,0,13158,1644.750
1766253587.4081352,1,1,13152,1644.000
1766253587.4121377,0,0,13156,1644.500
1766253587.4162388,0,0,13158,1644.750
1766253587.420158,0,0,13158,1644.750
1766253587.4241426,0,0,13156,1644.500
1766253587.4281585,1,1,13150,1643.750
1766253587.4321542,0,0,13155,1644.375
1766253587.436159,0,0,13158,1644.750
1766253587.4401438,0,0,13157,1644.625
1766253587.4441404,0,0,13155,1644.375
1766253587.448144,1,1,13151,1643.875
1766253587.4521377,0,0,13154,1644.250
1766253587.4561434,0,0,13157,1644.625
1766253587.4601529,0,0,13156,1644.500
1766253587.4641545,0,0,13154,1644.250
1766253587.4682279,1,1,13149,1643.625
1766253587.4721491,0,0,13152,1644.000
1766253587.4761512,0,0,13156,1644.500
1766253587.4801543,0,0,13156,1644.500
1766253587.484157,0,0,13154,1644.250
1766253587.488146,1,1,13148,1643.500
1766253587.4921372,0,0,13151,1643.875
1766253587.4961607,0,0,13154,1644.250
1766253587.5001404,0,0,13154,1644.250
1766253587.504137,0,0,13151,1643.875
1766253587.5081835,1,1,13147,1643.375
1766253587.51228,0,0,13150,1643.750
1766253587.5161767,0,0,13153,1644.125
1766253587.5201416,0,0,13154,1644.250
1766253587.5241373,0,0,13151,1643.875
1766253587.528235,1,1,13146,1643.250
1766253587.5321891,0,0,13148,1643.500
1766253587.5361676,0,0,13152,1644.000
1766253587.5401397,0,0,13153,1644.125
1766253587.544137,0,0,13151,1643.875
1766253587.5481608,1,1,13146,1643.250
1766253587.552223,0,0,13147,1643.375
1766253587.5561745,0,0,13151,1643.875
1766253587.5601375,0,0,13152,1644.000
1766253587.5641353,0,0,13150,1643.750
1766253587.5681581,1,1,13145,1643.125
1766253587.5721545,0,0,13146,1643.250
1766253587.5761569,0,0,13151,1643.875
1766253587.5801406,0,0,13151,1643.875
1766253587.5841346,0,0,13149,1643.625
1766253587.5881371,1,1,13143,1642.875
1766253587.5921366,0,0,13146,1643.250
1766253587.5961595,0,0,13150,1643.750
1766253587.6001587,0,0,13151,1643.875
1766253587.6041555,0,0,13149,1643.625
1766253587.6082091,1,1,13143,1642.875
1766253587.612146,0,0,13144,1643.000
1766253587.616144,0,0,13150,1643.750
1766253587.6201522,0,0,13151,1643.875
1766253587.6241498,0,0,13148,1643.500
1766253587.6283295,1,1,13144,1643.000
1766253587.632162,0,0,13143,1642.875
1766253587.6361618,0,0,13148,1643.500
1766253587.6401343,0,0,13148,1643.500
1766253587.644133,0,0,13148,1643.500
1766253587.6481328,1,1,13142,1642.750
1766253587.6521337,0,0,13142,1642.750
1766253587.6561558,0,0,13147,1643.375
1766253587.6602209,0,0,13148,1643.500
1766253587.6641612,0,0,13146,1643.250
1766253587.668146,1,1,13141,1642.625
1766253587.6721342,0,0,13141,1642.625
1766253587.676154,0,0,13147,1643.375
1766253587.6801531,0,0,13147,1643.375
1766253587.6841497,0,0,13145,1643.125
1766253587.688143,1,1,13141,1642.625
1766253587.692135,0,0,13141,1642.625
1766253587.6961517,0,0,13146,1643.250
1766253587.7001395,0,0,13147,1643.375
1766253587.7041364,0,0,13145,1643.125
1766253587.7081776,1,1,13140,1642.500
1766253587.712193,0,0,13138,1642.250
1766253587.7161653,0,0,13144,1643.000
1766253587.720135,0,0,13146,1643.250
1766253587.724136,0,0,13144,1643.000
1766253587.7338896,0,0,13144,1643.000
1766253587.7361534,0,0,13144,1643.000
1766253587.7401361,0,0,13143,1642.875
1766253587.7441356,0,0,13144,1643.000
1766253587.7481375,1,1,13140,1642.500
1766253587.7521343,0,0,13137,1642.125
1766253587.7561388,0,0,13144,1643.000
1766253587.760207,0,0,13144,1643.000
1766253587.7641633,0,0,13142,1642.750
1766253587.76814,1,1,13138,1642.250
1766253587.7721372,0,0,13136,1642.000
1766253587.7761436,0,0,13141,1642.625
1766253587.7801523,0,0,13144,1643.000
1766253587.7841492,0,0,13142,1642.750
1766253587.7881453,1,1,13139,1642.375
1766253587.7921352,0,0,13136,1642.000
1766253587.7961335,0,0,13142,1642.750
1766253587.8001509,0,0,13144,1643.000
1766253587.8041477,0,0,13142,1642.750
1766253587.8081517,1,1,13138,1642.250
1766253587.8122153,0,0,13135,1641.875
1766253587.81617,0,0,13140,1642.500
1766253587.820133,0,0,13142,1642.750
1766253587.8241305,0,0,13140,1642.500
1766253587.8281462,1,1,13137,1642.125
1766253587.8321507,0,0,13134,1641.750
1766253587.8361564,0,0,13140,1642.500
1766253587.8401334,0,0,13142,1642.750
1766253587.8441286,0,0,13141,1642.625
1766253587.8481557,1,1,13137,1642.125
1766253587.852274,0,0,13134,1641.750
1766253587.8561895,0,0,13139,1642.375
1766253587.860136,0,0,13141,1642.625
1766253587.8641288,0,0,13139,1642.375
1766253587.8681452,1,1,13136,1642.000
1766253587.8721445,0,0,13133,1641.625
1766253587.876195,0,0,13139,1642.375
1766253587.8802843,0,0,13142,1642.750
1766253587.8842225,0,0,13139,1642.375
1766253587.888181,1,1,13136,1642.000
1766253587.8921664,0,0,13132,1641.500
1766253587.8961704,0,0,13138,1642.250
1766253587.900174,0,0,13140,1642.500
1766253587.9041686,0,0,13138,1642.250
1766253587.9081686,1,1,13135,1641.875
1766253587.9121647,0,0,13131,1641.375
1766253587.9161792,0,0,13139,1642.375
1766253587.920191,0,0,13137,1642.125
1766253587.9242501,0,0,13134,1641.750
1766253587.9281948,1,1,13130,1641.250
1766253587.9322398,0,0,13135,1641.875
1766253587.936209,0,0,13137,1642.125
1766253587.9401777,0,0,13137,1642.125
1766253587.944227,0,0,13135,1641.875
1766253587.9481936,1,1,13130,1641.250
1766253587.952172,0,0,13136,1642.000
1766253587.9561918,0,0,13139,1642.375
1766253587.9601882,0,0,13137,1642.125
1766253587.9641893,0,0,13134,1641.750
1766253587.968182,1,1,13129,1641.125
1766253587.972173,0,0,13134,1641.750
1766253587.9761977,0,0,13137,1642.125
1766253587.9801748,0,0,13135,1641.875
1766253587.9841444,0,0,13133,1641.625
1766253587.988141,1,1,13128,1641.000
1766253587.992129,0,0,13135,1641.875
1766253587.9961407,0,0,13137,1642.125
1766253588.0001438,0,0,13136,1642.000
1766253588.0041428,0,0,13133,1641.625
1766253588.0081384,1,1,13128,1641.000
1766253588.0121305,0,0,13133,1641.625
1766253588.016197,0,0,13136,1642.000
1766253588.020137,0,0,13134,1641.750
1766253588.0241456,0,0,13132,1641.500
1766253588.028137,1,1,13126,1640.750
1766253588.03213,0,0,13132,1641.500
1766253588.0361392,0,0,13136,1642.000
1766253588.0401423,0,0,13135,1641.875
1766253588.0441833,0,0,13132,1641.500
1766253588.0481448,1,1,13126,1640.750
1766253588.0521302,0,0,13133,1641.625
1766253588.0561402,0,0,13135,1641.875
1766253588.0601478,0,0,13134,1641.750
1766253588.0641415,0,0,13131,1641.375
1766253588.0681334,1,1,13126,1640.750
1766253588.0721285,0,0,13132,1641.500
1766253588.0761962,0,0,13135,1641.875
1766253588.080147,0,0,13134,1641.750
1766253588.0841377,0,1,13131,1641.375
1766253588.0881405,1,1,13126,1640.750
1766253588.092144,0,0,13131,1641.375
1766253588.0961926,0,0,13132,1641.500
1766253588.1001341,0,0,13131,1641.375
1766253588.104126,0,1,13130,1641.250
1766253588.108144,1,1,13126,1640.750
1766253588.1121407,0,0,13130,1641.250
1766253588.1161456,0,0,13133,1641.625
1766253588.120133,0,0,13132,1641.500
1766253588.124129,1,1,13130,1641.250
1766253588.1281223,1,1,13124,1640.500
1766253588.1322203,0,0,13128,1641.000
1766253588.1361933,0,0,13131,1641.375
1766253588.1401508,0,0,13130,1641.250
1766253588.1441324,1,1,13129,1641.125
1766253588.1481237,1,1,13124,1640.500
1766253588.1521242,0,0,13128,1641.000
1766253588.156145,0,0,13132,1641.500
1766253588.1601403,0,0,13131,1641.375
1766253588.1641428,1,1,13130,1641.250
1766253588.1681802,1,1,13124,1640.500
1766253588.1721666,0,0,13127,1640.875
1766253588.1761506,0,0,13131,1641.375
1766253588.180128,0,0,13131,1641.375
1766253588.1841278,1,1,13128,1641.000
1766253588.1881437,1,1,13123,1640.375
1766253588.1921406,0,0,13128,1641.000
1766253588.196147,0,0,13132,1641.500
1766253588.2001295,0,0,13131,1641.375
1766253588.204126,1,1,13128,1641.000
1766253588.2081368,1,1,13122,1640.250
1766253588.2121427,0,0,13126,1640.750
1766253588.216184,0,0,13130,1641.250
1766253588.2201285,0,0,13130,1641.250
1766253588.2241256,1,1,13128,1641.000
1766253588.2281451,1,0,13123,1640.375
1766253588.232143,0,0,13125,1640.625
1766253588.2361445,0,0,13130,1641.250
1766253588.2401285,0,0,13130,1641.250
1766253588.2441235,1,1,13127,1640.875
1766253588.248126,0,0,13122,1640.250
1766253588.2521274,0,0,13125,1640.625
1766253588.256136,0,0,13130,1641.250
1766253588.2601357,0,0,13129,1641.125
1766253588.264135,1,1,13127,1640.875
1766253588.26814,1,0,13122,1640.250
1766253588.272139,0,0,13125,1640.625
1766253588.276146,0,0,13129,1641.125
1766253588.280138,0,0,13129,1641.125
1766253588.2841353,1,1,13127,1640.875
1766253588.2881749,0,0,13121,1640.125
1766253588.292166,0,0,13123,1640.375
1766253588.2961452,0,0,13127,1640.875
1766253588.300127,0,0,13128,1641.000
1766253588.3041227,1,1,13126,1640.750
1766253588.3081412,0,0,13120,1640.000
1766253588.3121424,0,0,13122,1640.250
1766253588.316146,0,0,13127,1640.875
1766253588.3201296,0,0,13127,1640.875
1766253588.3241854,1,1,13126,1640.750
1766253588.3281431,0,0,13120,1640.000
1766253588.3322074,0,0,13121,1640.125
1766253588.3361712,0,0,13127,1640.875
1766253588.3404758,0,0,13126,1640.750
1766253588.344306,1,1,13124,1640.500
1766253588.3481846,0,0,13118,1639.750
1766253588.3521678,0,0,13120,1640.000
1766253588.356166,0,0,13125,1640.625
1766253588.3601437,0,0,13125,1640.625
1766253588.3641362,1,1,13124,1640.500
1766253588.368137,0,0,13119,1639.875
1766253588.3721328,0,0,13119,1639.875
1766253588.3761344,0,0,13125,1640.625
1766253588.3801358,0,0,13126,1640.750
1766253588.3841348,1,1,13125,1640.625
1766253588.3882003,0,0,13119,1639.875
1766253588.392143,0,0,13120,1640.000
1766253588.3961413,0,0,13126,1640.750
1766253588.4002953,0,0,13126,1640.750
1766253588.40413,1,1,13124,1640.500
1766253588.4081235,0,0,13119,1639.875
1766253588.4121232,0,0,13119,1639.875
1766253588.4161441,0,0,13126,1640.750
1766253588.4201648,0,0,13125,1640.625
1766253588.4241285,1,1,13122,1640.250
1766253588.4281256,0,0,13119,1639.875
1766253588.4321198,0,0,13119,1639.875
1766253588.4361305,0,0,13124,1640.500
1766253588.4401243,0,0,13125,1640.625
1766253588.4441226,1,1,13124,1640.500
1766253588.4481733,0,0,13119,1639.875
1766253588.4521275,0,0,13118,1639.750
1766253588.4561403,0,0,13124,1640.500
1766253588.4601405,0,0,13125,1640.625
1766253588.464138,1,1,13122,1640.250
1766253588.4681313,0,0,13119,1639.875
1766253588.4721212,0,0,13118,1639.750
1766253588.4761484,0,0,13124,1640.500
1766253588.4801416,0,0,13124,1640.500
1766253588.4841428,1,1,13123,1640.375
1766253588.4881892,0,0,13118,1639.750
1766253588.4921486,0,0,13117,1639.625
1766253588.4961436,0,0,13122,1640.250
1766253588.5001178,0,0,13123,1640.375
1766253588.5041208,1,1,13122,1640.250
1766253588.5081453,0,0,13118,1639.750
1766253588.5121396,0,0,13116,1639.500
1766253588.5161374,0,0,13123,1640.375
1766253588.520187,0,0,13121,1640.125
1766253588.5241423,1,1,13116,1639.500
1766253588.52814,0,0,13114,1639.250
1766253588.5322073,0,0,13121,1640.125
1766253588.5361586,0,0,13123,1640.375
1766253588.5401232,0,0,13121,1640.125
1766253588.5441177,1,1,13118,1639.750
1766253588.5481372,0,0,13115,1639.375
1766253588.5521498,0,0,13121,1640.125
1766253588.5562005,0,0,13122,1640.250
1766253588.5601356,0,0,13119,1639.875
1766253588.564118,1,1,13117,1639.625
1766253588.5681372,0,0,13114,1639.250
1766253588.572137,0,0,13120,1640.000
1766253588.5761428,0,0,13122,1640.250
1766253588.5801218,0,0,13121,1640.125
1766253588.5841165,1,1,13117,1639.625
1766253588.58814,0,0,13114,1639.250
1766253588.5921378,0,0,13121,1640.125
1766253588.596147,0,0,13122,1640.250
1766253588.6001801,0,0,13120,1640.000
1766253588.6042023,1,1,13117,1639.625
1766253588.608134,0,0,13114,1639.250
1766253588.6121223,0,0,13121,1640.125
1766253588.6161366,0,0,13122,1640.250
1766253588.6201391,0,0,13120,1640.000
1766253588.6241329,1,1,13118,1639.750
1766253588.628129,0,0,13114,1639.250
1766253588.632116,0,0,13120,1640.000
1766253588.6361449,0,0,13121,1640.125
1766253588.640151,0,0,13119,1639.875
1766253588.6441684,1,1,13117,1639.625
1766253588.6481507,0,0,13112,1639.000
1766253588.652119,0,0,13119,1639.875
1766253588.6561344,0,0,13121,1640.125
1766253588.660139,0,0,13119,1639.875
1766253588.664137,1,1,13118,1639.750
1766253588.6681635,0,0,13113,1639.125
1766253588.6721585,0,0,13118,1639.750
1766253588.6761463,0,0,13120,1640.000
1766253588.6801212,0,0,13118,1639.750
1766253588.6841218,1,1,13116,1639.500
1766253588.6881347,0,0,13111,1638.875
1766253588.6921327,0,0,13118,1639.750
1766253588.6961381,0,0,13119,1639.875
1766253588.7001822,0,0,13117,1639.625
1766253588.7041402,1,1,13115,1639.375
1766253588.7081313,0,0,13111,1638.875
1766253588.7121158,0,0,13117,1639.625
1766253588.7161362,0,0,13119,1639.875
1766253588.7201374,0,0,13118,1639.750
1766253588.7241347,1,1,13116,1639.500
1766253588.728127,0,0,13111,1638.875
1766253588.7375944,0,0,13120,1640.000
1766253588.740155,0,0,13118,1639.750
1766253588.7441378,1,1,13115,1639.375
1766253588.7481408,0,0,13110,1638.750
1766253588.7521207,0,0,13116,1639.500
1766253588.7561367,0,0,13119,1639.875
1766253588.7601354,0,0,13118,1639.750
1766253588.7641335,1,1,13116,1639.500
1766253588.7681246,0,0,13111,1638.875
1766253588.7721193,0,0,13117,1639.625
1766253588.7761424,0,0,13120,1640.000
1766253588.780137,0,0,13119,1639.875
1766253588.7841349,1,1,13116,1639.500
1766253588.788175,0,0,13110,1638.750
1766253588.792127,0,0,13116,1639.500
1766253588.796139,0,0,13118,1639.750
1766253588.800134,0,0,13118,1639.750
1766253588.8041327,1,1,13115,1639.375
1766253588.8081274,0,0,13110,1638.750
1766253588.8121212,0,0,13117,1639.625
1766253588.8161395,0,0,13119,1639.875
1766253588.8201344,0,0,13118,1639.750
1766253588.8241296,1,1,13116,1639.500
1766253588.8281322,0,0,13110,1638.750
1766253588.8321323,0,0,13116,1639.500
1766253588.8361392,0,0,13119,1639.875
1766253588.8401356,0,0,13118,1639.750
1766253588.8441575,1,1,13116,1639.500
1766253588.8481874,0,0,13109,1638.625
1766253588.8521526,0,0,13114,1639.250
1766253588.8561413,0,0,13117,1639.625
1766253588.8601167,0,0,13116,1639.500
1766253588.864115,1,1,13115,1639.375
1766253588.8681338,0,0,13110,1638.750
1766253588.8721318,0,0,13114,1639.250
1766253588.8761392,0,0,13118,1639.750
1766253588.8801196,0,0,13118,1639.750
1766253588.8841128,1,1,13115,1639.375
1766253588.8881688,0,0,13109,1638.625
1766253588.8921223,0,0,13113,1639.125
1766253588.8961334,0,0,13117,1639.625
1766253588.9001324,0,0,13116,1639.500
1766253588.9041302,1,1,13114,1639.250
1766253588.90813,0,0,13108,1638.500
1766253588.9121277,0,0,13113,1639.125
1766253588.9161472,0,0,13117,1639.625
1766253588.9201915,0,0,13116,1639.500
1766253588.9241414,1,1,13114,1639.250
1766253588.9281273,0,0,13109,1638.625
1766253588.9321141,0,0,13114,1639.250
1766253588.9361982,0,0,13117,1639.625
1766253588.940158,0,0,13116,1639.500
1766253588.9441357,1,1,13113,1639.125
1766253588.9481263,0,0,13108,1638.500
1766253588.952113,0,0,13112,1639.000
1766253588.9561782,0,0,13116,1639.500
1766253588.9601276,0,0,13114,1639.250
1766253588.9641154,1,1,13112,1639.000
1766253588.9681318,0,0,13107,1638.375
1766253588.9721286,0,0,13111,1638.875
1766253588.976137,0,0,13115,1639.375
1766253588.9801545,0,0,13114,1639.250
1766253588.9841514,1,1,13112,1639.000
1766253588.9881275,0,0,13107,1638.375
1766253588.9921129,0,0,13111,1638.875
1766253588.996137,0,0,13116,1639.500
1766253589.000133,0,0,13115,1639.375
1766253589.0041306,1,1,13113,1639.125
1766253589.008124,0,0,13108,1638.500
1766253589.0121162,0,0,13111,1638.875
1766253589.0161529,0,0,13115,1639.375
1766253589.0201929,0,0,13115,1639.375
1766253589.0241432,1,1,13113,1639.125
1766253589.0281298,0,0,13107,1638.375
1766253589.0321152,0,0,13110,1638.750
1766253589.0361347,0,0,13115,1639.375
1766253589.0401313,0,0,13115,1639.375
1766253589.0441294,1,1,13113,1639.125
1766253589.0481231,0,0,13108,1638.500
1766253589.0521157,0,0,13110,1638.750
1766253589.0561488,0,0,13115,1639.375
1766253589.0601296,0,0,13115,1639.375
1766253589.0641394,1,1,13113,1639.125
1766253589.068132,0,0,13107,1638.375
1766253589.07213,0,0,13110,1638.750
1766253589.0761395,0,0,13115,1639.375
1766253589.080131,0,0,13115,1639.375
1766253589.084127,1,1,13114,1639.250
1766253589.0881214,0,0,13108,1638.500
1766253589.0921144,0,0,13109,1638.625
1766253589.0961266,0,0,13115,1639.375
1766253589.1001267,0,0,13114,1639.250
1766253589.1041272,1,1,13113,1639.125
1766253589.108122,0,0,13108,1638.500
1766253589.1121147,0,0,13108,1638.500
1766253589.1161215,0,0,13114,1639.250
1766253589.1201327,0,0,13114,1639.250
1766253589.124128,1,1,13113,1639.125
1766253589.1281316,0,0,13108,1638.500
1766253589.1321285,0,0,13108,1638.500
1766253589.1362073,0,0,13114,1639.250
1766253589.140128,0,0,13111,1638.875
1766253589.1441114,1,1,13107,1638.375
1766253589.1481285,0,0,13108,1638.500
1766253589.152127,0,0,13114,1639.250
1766253589.1561348,0,0,13114,1639.250
1766253589.1601143,0,0,13112,1639.000
1766253589.1641104,1,1,13108,1638.500
1766253589.1681309,0,0,13108,1638.500
1766253589.1721275,0,0,13114,1639.250
1766253589.1761348,0,0,13114,1639.250
1766253589.180132,0,0,13112,1639.000
1766253589.1841285,1,1,13108,1638.500
1766253589.1881204,0,0,13108,1638.500
1766253589.1921103,0,0,13113,1639.125
1766253589.196132,0,0,13114,1639.250
1766253589.2001321,0,0,13112,1639.000
1766253589.2041283,1,1,13106,1638.250
1766253589.208123,0,0,13106,1638.250
1766253589.2121198,0,0,13112,1639.000
1766253589.216115,0,0,13113,1639.125
1766253589.2201123,0,0,13111,1638.875
1766253589.224112,1,1,13107,1638.375
1766253589.2281299,0,0,13105,1638.125
1766253589.2321246,0,0,13111,1638.875
1766253589.2361279,0,0,13113,1639.125
1766253589.2401147,0,0,13112,1639.000
1766253589.2441127,1,1,13108,1638.500
1766253589.2481275,0,0,13106,1638.250
1766253589.2521284,0,0,13112,1639.000
1766253589.25613,0,0,13113,1639.125
1766253589.2601283,0,0,13111,1638.875
1766253589.2641284,1,1,13108,1638.500
1766253589.2681332,0,0,13105,1638.125
1766253589.2721257,0,0,13112,1639.000
1766253589.2761762,0,0,13113,1639.125
1766253589.280174,0,0,13112,1639.000
1766253589.2841723,1,1,13108,1638.500
1766253589.2881777,0,0,13104,1638.000
1766253589.292173,0,0,13111,1638.875
1766253589.296173,0,0,13112,1639.000
1766253589.3001719,0,0,13111,1638.875
1766253589.304171,1,1,13108,1638.500
1766253589.3081782,0,0,13104,1638.000
1766253589.312173,0,0,13110,1638.750
1766253589.3161724,0,0,13113,1639.125
1766253589.3201678,0,0,13110,1638.750
1766253589.324168,1,1,13107,1638.375
1766253589.3281744,0,0,13104,1638.000
1766253589.3321714,0,0,13110,1638.750
1766253589.336252,0,0,13111,1638.875
1766253589.3404508,0,0,13109,1638.625
1766253589.3443687,1,1,13106,1638.250
1766253589.3482254,0,0,13103,1637.875
1766253589.3521764,0,0,13109,1638.625
1766253589.356176,0,0,13111,1638.875
1766253589.3601716,0,0,13109,1638.625
1766253589.3641682,1,1,13106,1638.250
1766253589.368172,0,0,13102,1637.750
1766253589.3721683,0,0,13108,1638.500
1766253589.3761337,0,0,13111,1638.875
1766253589.380124,0,0,13110,1638.750
1766253589.3841233,1,1,13106,1638.250
1766253589.388126,0,0,13102,1637.750
1766253589.3921216,0,0,13109,1638.625
1766253589.396127,0,0,13110,1638.750
1766253589.4001126,0,0,13109,1638.625
1766253589.4041076,1,1,13106,1638.250
1766253589.4081264,0,0,13102,1637.750
1766253589.4121263,0,0,13108,1638.500
1766253589.4161317,0,0,13111,1638.875
1766253589.42013,0,0,13109,1638.625
1766253589.424122,1,1,13107,1638.375
1766253589.4281268,0,0,13102,1637.750
1766253589.4321208,0,0,13109,1638.625
1766253589.436131,0,0,13111,1638.875
1766253589.4401286,0,0,13109,1638.625
1766253589.4441247,1,1,13107,1638.375
1766253589.4481258,0,0,13102,1637.750
1766253589.4521234,0,0,13108,1638.500
1766253589.456129,0,0,13110,1638.750
1766253589.4601252,0,0,13109,1638.625
1766253589.464127,1,1,13106,1638.250
1766253589.468129,0,0,13102,1637.750
1766253589.4721293,0,0,13108,1638.500
1766253589.4761395,0,0,13110,1638.750
1766253589.480118,0,0,13108,1638.500
1766253589.4841092,1,1,13105,1638.125
1766253589.488126,0,0,13100,1637.500
1766253589.492125,0,0,13107,1638.375
1766253589.4961262,0,0,13110,1638.750
1766253589.5001087,0,0,13109,1638.625
1766253589.504107,1,1,13107,1638.375
1766253589.5081277,0,0,13102,1637.750
1766253589.5121238,0,0,13109,1638.625
1766253589.5161314,0,0,13112,1639.000
1766253589.5201294,0,0,13109,1638.625
1766253589.5241258,1,1,13107,1638.375
1766253589.5281289,0,0,13102,1637.750
1766253589.5321226,0,0,13107,1638.375
1766253589.536213,0,0,13110,1638.750
1766253589.5401225,0,0,13108,1638.500
1766253589.5441113,1,1,13106,1638.250
1766253589.5481677,0,0,13100,1637.500
1766253589.552121,0,0,13106,1638.250
1766253589.5561104,0,0,13110,1638.750
1766253589.5601065,0,0,13109,1638.625
1766253589.5641084,1,1,13107,1638.375
1766253589.5681112,0,0,13102,1637.750
1766253589.5721078,0,0,13107,1638.375
1766253589.5761209,0,0,13110,1638.750
1766253589.5801065,0,0,13109,1638.625
1766253589.5841029,1,1,13106,1638.250
1766253589.5881178,0,0,13101,1637.625
1766253589.592108,0,0,13107,1638.375
1766253589.596111,0,0,13109,1638.625
1766253589.6001031,0,0,13108,1638.500
1766253589.6041045,1,1,13106,1638.250
1766253589.6081069,0,0,13101,1637.625
1766253589.6121068,0,0,13106,1638.250
1766253589.6161053,0,0,13110,1638.750
1766253589.6201057,0,0,13109,1638.625
1766253589.6241033,1,1,13107,1638.375
1766253589.6281226,0,0,13101,1637.625
1766253589.6321244,0,0,13106,1638.250
1766253589.6361282,0,0,13110,1638.750
1766253589.6401217,0,0,13109,1638.625
1766253589.6441188,1,1,13107,1638.375
1766253589.6481123,0,0,13101,1637.625
1766253589.6521077,0,0,13106,1638.250
1766253589.6561115,0,0,13109,1638.625
1766253589.6601233,0,0,13108,1638.500
1766253589.6641176,1,1,13107,1638.375
1766253589.6681135,0,0,13101,1637.625
1766253589.6721058,0,0,13106,1638.250
1766253589.6761787,0,0,13109,1638.625
1766253589.6801713,0,0,13108,1638.500
1766253589.684165,1,1,13106,1638.250
1766253589.688168,0,0,13100,1637.500
1766253589.6921644,0,0,13103,1637.875
1766253589.6961715,0,0,13107,1638.375
1766253589.7001646,0,0,13107,1638.375
1766253589.704163,1,1,13106,1638.250
1766253589.7081687,0,0,13101,1637.625
1766253589.7121587,0,0,13104,1638.000
1766253589.716167,0,0,13108,1638.500
1766253589.720169,0,0,13107,1638.375
1766253589.724167,1,1,13105,1638.125
1766253589.728167,0,0,13101,1637.625
1766253589.7321608,0,0,13105,1638.125
1766253589.7428117,1,1,13107,1638.375
1766253589.7447097,1,1,13100,1637.500
1766253589.7481656,0,0,13103,1637.875
1766253589.752145,0,0,13107,1638.375
1766253589.7561567,0,0,13107,1638.375
1766253589.760166,0,0,13105,1638.125
1766253589.7641644,1,1,13100,1637.500
1766253589.7681556,0,0,13103,1637.875
1766253589.7721617,0,0,13107,1638.375
1766253589.7761378,0,0,13107,1638.375
1766253589.780127,0,0,13105,1638.125
1766253589.7841196,1,1,13101,1637.625
1766253589.788124,0,0,13104,1638.000
1766253589.792118,0,0,13109,1638.625
1766253589.7961237,0,0,13108,1638.500
1766253589.800106,0,0,13106,1638.250
1766253589.8041036,1,1,13102,1637.750
1766253589.8081236,0,0,13103,1637.875
1766253589.8121228,0,0,13109,1638.625
1766253589.8161232,0,0,13109,1638.625
1766253589.8201206,0,0,13107,1638.375
1766253589.8241212,1,1,13101,1637.625
1766253589.8281274,0,0,13103,1637.875
1766253589.8321214,0,0,13108,1638.500
1766253589.8361292,0,0,13108,1638.500
1766253589.8401258,0,0,13106,1638.250
1766253589.8441207,1,1,13101,1637.625
1766253589.8481278,0,0,13103,1637.875
1766253589.8521223,0,0,13108,1638.500
1766253589.8561223,0,0,13108,1638.500
1766253589.8601189,0,0,13106,1638.250
1766253589.864118,1,1,13101,1637.625
1766253589.8681138,0,0,13102,1637.750
1766253589.872104,0,0,13107,1638.375
1766253589.8761253,0,0,13107,1638.375
1766253589.8801217,0,0,13107,1638.375
1766253589.8841178,1,1,13102,1637.750
1766253589.8881245,0,0,13102,1637.750
1766253589.89212,0,0,13108,1638.500
1766253589.8961244,0,0,13107,1638.375
1766253589.9001033,0,0,13105,1638.125
1766253589.9041007,1,1,13100,1637.500
1766253589.9081175,0,0,13101,1637.625
1766253589.9121199,0,0,13105,1638.125
1766253589.9161248,0,0,13106,1638.250
1766253589.920122,0,0,13104,1638.000
1766253589.9241161,1,1,13100,1637.500
1766253589.9281204,0,0,13100,1637.500
1766253589.9321196,0,0,13106,1638.250
1766253589.9361258,0,0,13106,1638.250
1766253589.9402034,0,0,13104,1638.000
1766253589.9441285,1,1,13099,1637.375
1766253589.9481187,0,0,13099,1637.375
1766253589.9521027,0,0,13105,1638.125
1766253589.9561133,0,0,13106,1638.250
1766253589.9601212,0,0,13105,1638.125
1766253589.9641156,1,1,13100,1637.500
1766253589.9681077,0,0,13099,1637.375
1766253589.9721003,0,0,13106,1638.250
1766253589.9761224,0,0,13107,1638.375
1766253589.9801211,0,0,13105,1638.125
1766253589.984121,1,1,13100,1637.500
1766253589.9881246,0,0,13098,1637.250
1766253589.9921167,0,0,13104,1638.000
1766253589.9961236,0,0,13106,1638.250
1766253590.0001214,0,0,13104,1638.000
1766253590.0041199,1,1,13100,1637.500
1766253590.00812,0,0,13098,1637.250
1766253590.0121162,0,0,13104,1638.000
1766253590.0161269,0,0,13106,1638.250
1766253590.0201175,0,0,13105,1638.125
1766253590.024118,1,1,13100,1637.500
1766253590.028122,0,0,13098,1637.250
1766253590.032115,0,0,13105,1638.125
1766253590.036122,0,0,13106,1638.250
1766253590.040123,0,0,13104,1638.000
1766253590.044119,1,1,13100,1637.500
1766253590.0481231,0,0,13098,1637.250
1766253590.0521176,0,0,13104,1638.000
1766253590.0561209,0,0,13105,1638.125
1766253590.0601163,0,0,13103,1637.875
1766253590.0641174,1,1,13099,1637.375
1766253590.0681221,0,0,13097,1637.125
1766253590.0721145,0,0,13104,1638.000
1766253590.0761707,0,0,13105,1638.125
1766253590.0801635,0,0,13104,1638.000
1766253590.0841575,1,1,13100,1637.500
1766253590.088172,0,0,13097,1637.125
1766253590.0921714,0,0,13104,1638.000
1766253590.0961676,0,0,13106,1638.250
1766253590.1001408,0,0,13104,1638.000
1766253590.1041415,1,1,13100,1637.500
1766253590.1081624,0,0,13096,1637.000
1766253590.1121607,0,0,13103,1637.875
1766253590.1161606,0,0,13106,1638.250
1766253590.1201584,0,0,13103,1637.875
1766253590.1241586,1,1,13101,1637.625
1766253590.128163,0,0,13097,1637.125
1766253590.1321619,0,0,13103,1637.875
1766253590.1361632,0,0,13105,1638.125
1766253590.1402307,0,0,13103,1637.875
1766253590.1441722,1,1,13101,1637.625
1766253590.148157,0,0,13096,1637.000
1766253590.1521442,0,0,13102,1637.750
1766253590.1561575,0,0,13105,1638.125
1766253590.16016,0,0,13103,1637.875
1766253590.1641567,1,1,13101,1637.625
1766253590.1681478,0,0,13096,1637.000
1766253590.1721425,0,0,13103,1637.875
1766253590.1761289,0,0,13105,1638.125
1766253590.1801014,0,0,13104,1638.000
1766253590.1841006,1,1,13100,1637.500
1766253590.1881194,0,0,13096,1637.000
1766253590.1921191,0,0,13103,1637.875
1766253590.1961231,0,0,13105,1638.125
1766253590.2001193,0,0,13103,1637.875
1766253590.2041147,1,1,13100,1637.500
1766253590.208118,0,0,13096,1637.000
1766253590.212116,0,0,13103,1637.875
1766253590.2161205,0,0,13105,1638.125
1766253590.2201188,0,0,13104,1638.000
1766253590.2241118,1,1,13101,1637.625
1766253590.228118,0,0,13097,1637.125
1766253590.2321122,0,0,13103,1637.875
1766253590.236122,0,0,13105,1638.125
1766253590.2401175,0,0,13103,1637.875
1766253590.2441154,1,1,13101,1637.625
1766253590.2481172,0,0,13096,1637.000
1766253590.2521148,0,0,13102,1637.750
1766253590.2561216,0,0,13105,1638.125
1766253590.2601185,0,0,13104,1638.000
1766253590.264115,1,1,13102,1637.750
1766253590.2681172,0,0,13096,1637.000
1766253590.2721136,0,0,13102,1637.750
1766253590.2761676,0,0,13105,1638.125
1766253590.2801628,0,0,13103,1637.875
1766253590.2841587,1,1,13101,1637.625
1766253590.288164,0,0,13096,1637.000
1766253590.2921603,0,0,13101,1637.625
1766253590.2961662,0,0,13104,1638.000
1766253590.3001442,0,0,13103,1637.875
1766253590.3041406,1,1,13100,1637.500
1766253590.3081603,0,0,13095,1636.875
1766253590.3121555,0,0,13101,1637.625
1766253590.3161614,0,0,13105,1638.125
1766253590.3201418,0,0,13103,1637.875
1766253590.324139,1,1,13102,1637.750
1766253590.3281603,0,0,13096,1637.000
1766253590.3321574,0,0,13101,1637.625
1766253590.3361619,0,0,13104,1638.000
1766253590.3404536,0,0,13101,1637.625
1766253590.344352,1,1,13094,1636.750
1766253590.348206,0,0,13101,1637.625
1766253590.3521612,0,0,13104,1638.000
1766253590.3561628,0,0,13103,1637.875
1766253590.3601563,0,0,13102,1637.750
1766253590.3641565,1,1,13095,1636.875
1766253590.368157,0,0,13100,1637.500
1766253590.3721564,0,0,13103,1637.875
1766253590.3761346,0,0,13103,1637.875
1766253590.3801165,0,0,13101,1637.625
1766253590.384112,1,1,13096,1637.000
1766253590.3881218,0,0,13102,1637.750
1766253590.3921163,0,0,13105,1638.125
1766253590.3961198,0,0,13104,1638.000
1766253590.4001005,0,0,13102,1637.750
1766253590.4041438,1,1,13096,1637.000
1766253590.4081838,0,0,13102,1637.750
1766253590.4124897,0,0,13104,1638.000
1766253590.4161747,0,0,13103,1637.875
1766253590.420099,0,0,13102,1637.750
1766253590.4240942,1,1,13096,1637.000
1766253590.428119,0,0,13101,1637.625
1766253590.4321184,0,0,13105,1638.125
1766253590.4361174,0,0,13104,1638.000
1766253590.4401014,0,0,13102,1637.750
1766253590.4440942,1,1,13096,1637.000
1766253590.4481163,0,0,13100,1637.500
1766253590.45212,0,0,13105,1638.125
1766253590.4561188,0,0,13104,1638.000
1766253590.460114,0,0,13102,1637.750
1766253590.464109,1,1,13096,1637.000
1766253590.4681177,0,0,13099,1637.375
1766253590.4721143,0,0,13103,1637.875
1766253590.476119,0,0,13103,1637.875
1766253590.4801178,0,0,13101,1637.625
1766253590.4841113,1,1,13096,1637.000
1766253590.488114,0,0,13100,1637.500
1766253590.4921093,0,0,13103,1637.875
1766253590.49614,0,0,13103,1637.875
1766253590.5001225,0,0,13100,1637.500
1766253590.504111,1,1,13096,1637.000
1766253590.508104,0,0,13100,1637.500
1766253590.5120947,0,0,13103,1637.875
1766253590.516176,0,0,13103,1637.875
1766253590.5201306,0,0,13102,1637.750
1766253590.5241175,1,1,13095,1636.875
1766253590.5281057,0,0,13099,1637.375
1766253590.5320952,0,0,13104,1638.000
1766253590.5361187,0,0,13103,1637.875
1766253590.540319,0,0,13101,1637.625
1766253590.5441287,1,1,13095,1636.875
1766253590.54811,0,0,13099,1637.375
1766253590.5520937,0,0,13103,1637.875
1766253590.556115,0,0,13103,1637.875
1766253590.5601146,0,0,13101,1637.625
1766253590.5640988,1,1,13095,1636.875
1766253590.5680978,0,0,13098,1637.250
1766253590.5720947,0,0,13104,1638.000
1766253590.5761545,0,0,13102,1637.750
1766253590.5801659,0,0,13101,1637.625
1766253590.5841594,1,1,13095,1636.875
1766253590.5881639,0,0,13098,1637.250
1766253590.5921535,0,0,13104,1638.000
1766253590.5961616,0,0,13103,1637.875
1766253590.6001596,0,0,13101,1637.625
1766253590.6041589,1,1,13096,1637.000
1766253590.6081612,0,0,13097,1637.125
1766253590.6121557,0,0,13103,1637.875
1766253590.6161597,0,0,13103,1637.875
1766253590.6201386,0,0,13101,1637.625
1766253590.6241376,1,1,13097,1637.125
1766253590.628157,0,0,13098,1637.250
1766253590.632157,0,0,13103,1637.875
1766253590.6361575,0,0,13103,1637.875
1766253590.6401572,0,0,13101,1637.625
1766253590.6441555,1,1,13097,1637.125
1766253590.648149,0,0,13097,1637.125
1766253590.6521382,0,0,13103,1637.875
1766253590.6561434,0,0,13103,1637.875
1766253590.6601539,0,0,13101,1637.625
1766253590.6641521,1,1,13097,1637.125
1766253590.6681614,0,0,13096,1637.000
1766253590.6721568,0,0,13102,1637.750
1766253590.6761198,0,0,13102,1637.750
1766253590.6801152,0,0,13101,1637.625
1766253590.6841094,1,1,13096,1637.000
1766253590.6881154,0,0,13095,1636.875
1766253590.692112,0,0,13102,1637.750
1766253590.6961155,0,0,13103,1637.875
1766253590.7001956,0,0,13102,1637.750
1766253590.7043805,1,1,13097,1637.125
1766253590.708107,0,0,13096,1637.000
1766253590.7120957,0,0,13103,1637.875
1766253590.7161112,0,0,13103,1637.875
1766253590.720113,0,0,13101,1637.625
1766253590.7241087,1,1,13097,1637.125
1766253590.7281015,0,0,13096,1637.000
1766253590.732097,0,0,13102,1637.750
1766253590.7361186,0,0,13103,1637.875
1766253590.745749,0,0,13095,1636.875
1766253590.748246,0,0,13095,1636.875
1766253590.7521172,0,0,13101,1637.625
1766253590.7561219,0,0,13103,1637.875
1766253590.760096,0,0,13101,1637.625
1766253590.7640898,1,1,13098,1637.250
1766253590.7681098,0,0,13095,1636.875
1766253590.7721112,0,0,13101,1637.625
1766253590.776117,0,0,13103,1637.875
1766253590.780096,0,0,13101,1637.625
1766253590.784095,1,1,13097,1637.125
1766253590.7881107,0,0,13095,1636.875
1766253590.792107,0,0,13102,1637.750
1766253590.7961183,0,0,13103,1637.875
1766253590.8001149,0,0,13101,1637.625
1766253590.8041108,1,1,13098,1637.250
1766253590.808112,0,0,13094,1636.750
1766253590.8121102,0,0,13101,1637.625
1766253590.8161154,0,0,13102,1637.750
1766253590.8201072,0,0,13101,1637.625
1766253590.8241096,1,1,13097,1637.125
1766253590.8281116,0,0,13095,1636.875
1766253590.8321083,0,0,13101,1637.625
1766253590.8361104,0,0,13103,1637.875
1766253590.840109,0,0,13101,1637.625
1766253590.8441105,1,1,13098,1637.250
1766253590.8481207,0,0,13095,1636.875
1766253590.8521078,0,0,13101,1637.625
1766253590.8561144,0,0,13102,1637.750
1766253590.8601117,0,0,13101,1637.625
1766253590.864109,1,1,13098,1637.250
1766253590.868115,0,0,13094,1636.750
1766253590.8721054,0,0,13100,1637.500
1766253590.8761103,0,0,13102,1637.750
1766253590.8801103,0,0,13101,1637.625
1766253590.884111,1,1,13098,1637.250
1766253590.8881137,0,0,13094,1636.750
1766253590.8921082,0,0,13101,1637.625
1766253590.8961108,0,0,13103,1637.875
1766253590.900094,0,0,13101,1637.625
1766253590.9040935,1,1,13097,1637.125
1766253590.9081085,0,0,13094,1636.750
1766253590.9121075,0,0,13100,1637.500
1766253590.916111,0,0,13103,1637.875
1766253590.920108,0,0,13101,1637.625
1766253590.9241078,1,1,13098,1637.250
1766253590.9281127,0,0,13094,1636.750
1766253590.9321098,0,0,13100,1637.500
1766253590.9361093,0,0,13102,1637.750
1766253590.9401028,0,0,13100,1637.500
1766253590.9443033,1,1,13093,1636.625
1766253590.948142,0,0,13093,1636.625
1766253590.952107,0,0,13100,1637.500
1766253590.9561028,0,0,13102,1637.750
1766253590.9600928,0,0,13100,1637.500
1766253590.9640906,1,1,13098,1637.250
1766253590.9681087,0,0,13100,1637.500
1766253590.9721096,0,0,13101,1637.625
1766253590.976115,0,0,13100,1637.500
1766253590.9800913,0,0,13097,1637.125
1766253590.9840882,1,1,13093,1636.625
1766253590.9881074,0,0,13099,1637.375
1766253590.9921093,0,0,13102,1637.750
1766253590.9961147,0,0,13101,1637.625
1766253591.000105,0,0,13098,1637.250
1766253591.004117,1,1,13093,1636.625
1766253591.0081015,0,0,13099,1637.375
1766253591.0120907,0,0,13101,1637.625
1766253591.016114,0,0,13100,1637.500
1766253591.0201104,0,0,13098,1637.250
1766253591.0241034,1,1,13092,1636.500
1766253591.0280964,0,0,13098,1637.250
1766253591.0320904,0,0,13101,1637.625
1766253591.0361202,0,0,13100,1637.500
1766253591.040113,0,0,13098,1637.250
1766253591.044107,1,1,13093,1636.625
1766253591.0481095,0,0,13099,1637.375
1766253591.0521045,0,0,13103,1637.875
1766253591.0561094,0,0,13101,1637.625
1766253591.060109,0,0,13099,1637.375
1766253591.0641074,1,1,13093,1636.625
1766253591.068109,0,0,13099,1637.375
1766253591.072103,0,0,13101,1637.625
1766253591.0761137,0,0,13101,1637.625
1766253591.0801113,0,0,13098,1637.250
1766253591.084105,1,1,13092,1636.500
1766253591.0881062,0,0,13099,1637.375
1766253591.0921037,0,0,13103,1637.875
1766253591.0961072,0,0,13101,1637.625
1766253591.1001086,0,0,13099,1637.375
1766253591.1041052,1,1,13093,1636.625
1766253591.1081111,0,0,13098,1637.250
1766253591.1121051,0,0,13102,1637.750
1766253591.116108,0,0,13101,1637.625
1766253591.1201108,0,0,13098,1637.250
1766253591.1241071,1,1,13093,1636.625
1766253591.1280978,0,0,13098,1637.250
1766253591.1320884,0,0,13101,1637.625
1766253591.1361096,0,0,13100,1637.500
1766253591.1401064,0,0,13098,1637.250
1766253591.1442978,1,1,13093,1636.625
1766253591.1481228,0,0,13097,1637.125
1766253591.1520884,0,0,13101,1637.625
1766253591.1561167,0,0,13101,1637.625
1766253591.1601064,0,0,13099,1637.375
1766253591.1641073,1,1,13091,1636.375
1766253591.168099,0,0,13097,1637.125
1766253591.1720905,0,0,13101,1637.625
1766253591.1761281,0,0,13100,1637.500
1766253591.1801066,0,0,13098,1637.250
1766253591.1841056,1,1,13092,1636.500
1766253591.1880972,0,0,13097,1637.125
1766253591.1920896,0,0,13100,1637.500
1766253591.196094,0,0,13100,1637.500
1766253591.2001052,0,0,13099,1637.375
1766253591.2041004,1,1,13093,1636.625
1766253591.208104,0,0,13097,1637.125
1766253591.2121055,0,0,13100,1637.500
1766253591.2161095,0,0,13101,1637.625
1766253591.2201002,0,0,13098,1637.250
1766253591.2240996,1,1,13092,1636.500
1766253591.22811,0,0,13097,1637.125
1766253591.2321043,0,0,13101,1637.625
1766253591.236107,0,0,13101,1637.625
1766253591.2401042,0,0,13099,1637.375
1766253591.2441008,1,1,13093,1636.625
1766253591.2481053,0,0,13096,1637.000
1766253591.2521024,0,0,13100,1637.500
1766253591.2561057,0,0,13100,1637.500
1766253591.2601051,0,0,13098,1637.250
1766253591.2641006,1,1,13092,1636.500
1766253591.2680933,0,0,13095,1636.875
1766253591.272087,0,0,13099,1637.375
1766253591.2761319,0,0,13100,1637.500
1766253591.280117,1,1,13098,1637.250
1766253591.2841036,1,1,13093,1636.625
1766253591.2881024,0,0,13096,1637.000
1766253591.2921042,0,0,13100,1637.500
1766253591.2961068,0,0,13100,1637.500
1766253591.300106,1,1,13099,1637.375
1766253591.304099,1,1,13093,1636.625
1766253591.3081057,0,0,13095,1636.875
1766253591.3121002,0,0,13100,1637.500
1766253591.3161094,0,0,13100,1637.500
1766253591.3201053,1,1,13098,1637.250
1766253591.3241038,1,1,13093,1636.625
1766253591.328105,0,0,13095,1636.875
1766253591.3321016,0,0,13100,1637.500
1766253591.3361073,0,0,13099,1637.375
1766253591.3404574,1,1,13098,1637.250
1766253591.344313,0,0,13093,1636.625
1766253591.3481472,0,0,13094,1636.750
1766253591.3520923,0,0,13099,1637.375
1766253591.3561265,0,0,13100,1637.500
1766253591.3601096,1,1,13098,1637.250
1766253591.3641005,1,1,13093,1636.625
1766253591.3680918,0,0,13095,1636.875
1766253591.3720863,0,0,13100,1637.500
1766253591.3761163,0,0,13100,1637.500
1766253591.3801062,1,1,13099,1637.375
1766253591.3841035,1,1,13093,1636.625
1766253591.3881066,0,0,13094,1636.750
1766253591.3920987,0,0,13099,1637.375
1766253591.396106,0,0,13100,1637.500
1766253591.4000907,1,1,13099,1637.375
1766253591.4040847,1,1,13094,1636.750
1766253591.4081013,0,0,13095,1636.875
1766253591.4121022,0,0,13100,1637.500
1766253591.4161036,0,0,13101,1637.625
1766253591.4200995,1,1,13099,1637.375
1766253591.4241009,0,0,13094,1636.750
1766253591.4280958,0,0,13094,1636.750
1766253591.4320836,0,0,13101,1637.625
1766253591.4360995,0,0,13101,1637.625
1766253591.4401004,1,1,13099,1637.375
1766253591.4441037,1,0,13094,1636.750
1766253591.448105,0,0,13094,1636.750
1766253591.4520986,0,0,13100,1637.500
1766253591.456102,0,0,13101,1637.625
1766253591.4600992,1,1,13099,1637.375
1766253591.464098,0,0,13094,1636.750
1766253591.4681027,0,0,13093,1636.625
1766253591.4720986,0,0,13099,1637.375
1766253591.4761515,0,0,13101,1637.625
1766253591.4801455,1,1,13099,1637.375
1766253591.4841454,0,0,13095,1636.875
1766253591.4881492,0,0,13093,1636.625
1766253591.492143,0,0,13099,1637.375
1766253591.4961467,0,0,13100,1637.500
1766253591.5001433,1,1,13098,1637.250
1766253591.5041397,0,0,13095,1636.875
1766253591.5081477,0,0,13094,1636.750
1766253591.5121436,0,0,13100,1637.500
1766253591.51615,0,0,13101,1637.625
1766253591.5201454,1,1,13098,1637.250
1766253591.5241387,0,0,13095,1636.875
1766253591.5281444,0,0,13093,1636.625
1766253591.5321448,0,0,13099,1637.375
1766253591.5361497,0,0,13100,1637.500
1766253591.5401237,1,1,13099,1637.375
1766253591.5442488,0,0,13096,1637.000
1766253591.5481484,0,0,13094,1636.750
1766253591.552128,0,0,13099,1637.375
1766253591.5561368,0,0,13099,1637.375
1766253591.5601454,1,1,13099,1637.375
1766253591.564143,0,0,13095,1636.875
1766253591.5681322,0,0,13092,1636.500
1766253591.5721185,0,0,13100,1637.500
1766253591.5761063,0,0,13099,1637.375
1766253591.5800877,1,1,13095,1636.875
1766253591.5840814,0,0,13092,1636.500
1766253591.5881023,0,0,13099,1637.375
1766253591.5920985,0,0,13100,1637.500
1766253591.5961027,0,0,13099,1637.375
1766253591.600102,1,1,13096,1637.000
1766253591.604099,0,0,13092,1636.500
1766253591.6081007,0,0,13099,1637.375
1766253591.6120973,0,0,13101,1637.625
1766253591.6161048,0,0,13099,1637.375
1766253591.6201012,1,1,13096,1637.000
1766253591.6241004,0,0,13092,1636.500
1766253591.6281016,0,0,13099,1637.375
1766253591.6320965,0,0,13101,1637.625
1766253591.636101,0,0,13099,1637.375
1766253591.6400812,1,1,13096,1637.000
1766253591.6440818,0,0,13092,1636.500
1766253591.6480818,0,0,13099,1637.375
1766253591.65208,0,0,13102,1637.750
1766253591.6560884,0,0,13099,1637.375
1766253591.660098,1,1,13096,1637.000
1766253591.6640985,0,0,13092,1636.500
1766253591.6681032,0,0,13099,1637.375
1766253591.6720955,0,0,13101,1637.625
1766253591.6761482,0,0,13100,1637.500
1766253591.6801455,1,1,13097,1637.125
1766253591.6841435,0,0,13092,1636.500
1766253591.6881492,0,0,13099,1637.375
1766253591.6921444,0,0,13101,1637.625
1766253591.6961462,0,0,13099,1637.375
1766253591.700142,1,1,13097,1637.125
1766253591.7041407,0,0,13091,1636.375
1766253591.7081482,0,0,13098,1637.250
1766253591.712142,0,0,13101,1637.625
1766253591.716143,0,0,13099,1637.375
1766253591.72014,1,1,13097,1637.125
1766253591.7241428,0,0,13092,1636.500
1766253591.728148,0,0,13099,1637.375
1766253591.7321413,0,0,13101,1637.625
1766253591.7361438,0,0,13100,1637.500
1766253591.7401392,1,1,13097,1637.125
1766253591.7513835,0,0,13099,1637.375
1766253591.7535923,0,0,13099,1637.375
1766253591.7561607,0,0,13095,1636.875
1766253591.7601511,1,1,13094,1636.750
1766253591.7641444,0,0,13089,1636.125
1766253591.7681484,0,0,13097,1637.125
1766253591.772144,0,0,13100,1637.500
1766253591.7761083,0,0,13099,1637.375
1766253591.7800796,1,1,13097,1637.125
1766253591.7840772,0,0,13091,1636.375
1766253591.7881,0,0,13097,1637.125
1766253591.792098,0,0,13101,1637.625
1766253591.7960994,0,0,13099,1637.375
1766253591.8000998,1,1,13097,1637.125
1766253591.8040965,0,0,13092,1636.500
1766253591.8080978,0,0,13098,1637.250
1766253591.8120923,0,0,13100,1637.500
1766253591.8160977,0,0,13099,1637.375
1766253591.8201003,1,1,13097,1637.125
1766253591.8240926,0,0,13091,1636.375
1766253591.8280962,0,0,13097,1637.125
1766253591.8320951,0,0,13100,1637.500
1766253591.8361034,0,0,13099,1637.375
1766253591.8400998,1,1,13097,1637.125
1766253591.8444815,0,0,13090,1636.250
1766253591.8480954,0,0,13096,1637.000
1766253591.852082,0,0,13100,1637.500
1766253591.8561063,0,0,13099,1637.375
1766253591.8600984,1,1,13096,1637.000
1766253591.8640952,0,0,13090,1636.250
1766253591.8680856,0,0,13096,1637.000
1766253591.8720756,0,0,13099,1637.375
1766253591.8761053,0,0,13099,1637.375
1766253591.8801022,1,1,13097,1637.125
1766253591.8840978,0,0,13091,1636.375
1766253591.888098,0,0,13097,1637.125
1766253591.8920934,0,0,13100,1637.500
1766253591.8960996,0,0,13099,1637.375
1766253591.9000807,1,1,13096,1637.000
1766253591.9040792,0,0,13091,1636.375
1766253591.9080975,0,0,13096,1637.000
1766253591.9120948,0,0,13100,1637.500
1766253591.9160993,0,0,13099,1637.375
1766253591.9200995,1,1,13097,1637.125
1766253591.9240963,0,0,13092,1636.500
1766253591.9280999,0,0,13097,1637.125
1766253591.9320931,0,0,13101,1637.625
1766253591.9360967,0,0,13100,1637.500
1766253591.9400976,1,1,13098,1637.250
1766253591.9440944,0,0,13092,1636.500
1766253591.9483218,0,0,13096,1637.000
1766253591.9521084,0,0,13100,1637.500
1766253591.9561026,0,0,13100,1637.500
1766253591.96008,1,1,13098,1637.250
1766253591.96408,0,0,13093,1636.625
1766253591.968097,0,0,13096,1637.000
1766253591.9720957,0,0,13100,1637.500
1766253591.9760993,0,0,13100,1637.500
1766253591.9800782,1,1,13098,1637.250
1766253591.984079,0,0,13092,1636.500
1766253591.9880939,0,0,13096,1637.000
1766253591.9920938,0,0,13100,1637.500
1766253591.9960976,0,0,13100,1637.500
1766253592.000094,1,1,13098,1637.250
1766253592.0040908,0,0,13092,1636.500
1766253592.0080976,0,0,13095,1636.875
1766253592.012094,0,0,13099,1637.375
1766253592.0161016,0,0,13100,1637.500
1766253592.02009,1,1,13099,1637.375
1766253592.0240893,0,0,13092,1636.500
1766253592.0280988,0,0,13096,1637.000
1766253592.0320938,0,0,13101,1637.625
1766253592.0360944,0,0,13101,1637.625
1766253592.0400953,1,1,13098,1637.250
1766253592.0440922,0,0,13093,1636.625
1766253592.0480974,0,0,13096,1637.000
1766253592.0520935,0,0,13100,1637.500
1766253592.0560958,0,0,13100,1637.500
1766253592.0600884,1,1,13098,1637.250
1766253592.064089,0,0,13092,1636.500
1766253592.0680826,0,0,13095,1636.875
1766253592.0720758,0,0,13099,1637.375
1766253592.0761495,0,0,13099,1637.375
1766253592.0801418,1,1,13098,1637.250
1766253592.0841377,0,0,13093,1636.625
1766253592.0881402,0,0,13095,1636.875
1766253592.0921352,0,0,13100,1637.500
1766253592.0961423,0,0,13100,1637.500
1766253592.1001368,1,1,13097,1637.125
1766253592.1041355,0,0,13093,1636.625
1766253592.1081378,0,0,13094,1636.750
1766253592.1121323,0,0,13100,1637.500
1766253592.1161425,0,0,13099,1637.375
1766253592.1201382,1,1,13098,1637.250
1766253592.124134,0,0,13093,1636.625
1766253592.1281369,0,0,13094,1636.750
1766253592.132133,0,0,13099,1637.375
1766253592.1361418,0,0,13100,1637.500
1766253592.1401408,1,1,13099,1637.375
1766253592.144134,0,0,13093,1636.625
1766253592.1483467,0,0,13094,1636.750
1766253592.1521332,0,0,13100,1637.500
1766253592.1561549,0,0,13099,1637.375
1766253592.1601229,1,1,13098,1637.250
1766253592.1641152,0,0,13093,1636.625
1766253592.1681333,0,0,13093,1636.625
1766253592.1721363,0,0,13099,1637.375
1766253592.1760957,0,0,13100,1637.500
1766253592.1801367,1,1,13093,1636.625
1766253592.1840832,0,0,13092,1636.500
1766253592.1880758,0,0,13099,1637.375
1766253592.192072,0,0,13100,1637.500
1766253592.1960957,0,0,13099,1637.375
1766253592.2000978,1,1,13094,1636.750
1766253592.2040913,0,0,13092,1636.500
1766253592.2080827,0,0,13098,1637.250
1766253592.2120733,0,0,13099,1637.375
1766253592.2160954,0,0,13097,1637.125
1766253592.2200942,1,1,13093,1636.625
1766253592.2240942,0,0,13093,1636.625
1766253592.228081,0,0,13099,1637.375
1766253592.2320752,0,0,13100,1637.500
1766253592.236099,0,0,13098,1637.250
1766253592.2400925,1,1,13094,1636.750
1766253592.2440894,0,0,13093,1636.625
1766253592.2480927,0,0,13100,1637.500
1766253592.2520895,0,0,13100,1637.500
1766253592.2560923,0,0,13097,1637.125
1766253592.2600877,1,1,13094,1636.750
1766253592.2640898,0,0,13092,1636.500
1766253592.2680955,0,0,13099,1637.375
1766253592.2720883,0,0,13100,1637.500
1766253592.276092,0,0,13097,1637.125
1766253592.2800896,1,1,13093,1636.625
1766253592.2840872,0,0,13091,1636.375
1766253592.2880921,0,0,13098,1637.250
1766253592.2920876,0,0,13098,1637.250
1766253592.2960935,0,0,13097,1637.125
1766253592.300089,1,1,13093,1636.625
1766253592.304085,0,0,13090,1636.250
1766253592.308088,0,0,13097,1637.125
1766253592.312088,0,0,13099,1637.375
1766253592.316093,0,0,13097,1637.125
1766253592.32009,1,1,13093,1636.625
1766253592.324085,0,0,13090,1636.250
1766253592.3280883,0,0,13097,1637.125
1766253592.3320885,0,0,13099,1637.375
1766253592.3360925,0,0,13097,1637.125
1766253592.3404295,1,1,13094,1636.750
1766253592.3442588,0,0,13089,1636.125
1766253592.3483431,0,0,13096,1637.000
1766253592.3521159,0,0,13097,1637.125
1766253592.356096,0,0,13096,1637.000
1766253592.3600805,1,1,13093,1636.625
1766253592.3640726,0,0,13090,1636.250
1766253592.36809,0,0,13097,1637.125
1766253592.3720841,0,0,13098,1637.250
1766253592.3760917,0,0,13097,1637.125
1766253592.3800786,1,1,13093,1636.625
1766253592.3840725,0,0,13089,1636.125
1766253592.3880906,0,0,13097,1637.125
1766253592.3920822,0,0,13100,1637.500
1766253592.3960903,0,0,13097,1637.125
1766253592.4002824,1,1,13094,1636.750
1766253592.4040833,0,0,13090,1636.250
1766253592.4080737,0,0,13097,1637.125
1766253592.41207,0,0,13098,1637.250
1766253592.4160845,0,0,13098,1637.250
1766253592.4200764,1,1,13094,1636.750
1766253592.4240708,0,0,13090,1636.250
1766253592.4280684,0,0,13098,1637.250
1766253592.432068,0,0,13100,1637.500
1766253592.4360898,0,0,13098,1637.250
1766253592.4400973,1,1,13095,1636.875
1766253592.4440906,0,0,13090,1636.250
1766253592.4480891,0,0,13096,1637.000
1766253592.4520736,0,0,13098,1637.250
1766253592.4560966,0,0,13097,1637.125
1766253592.460092,1,1,13094,1636.750
1766253592.4640875,0,0,13090,1636.250
1766253592.4680803,0,0,13098,1637.250
1766253592.472068,0,0,13099,1637.375
1766253592.4760985,0,0,13098,1637.250
1766253592.4800913,1,1,13096,1637.000
1766253592.48409,0,0,13091,1636.375
1766253592.4880936,0,0,13097,1637.125
1766253592.4920864,0,0,13099,1637.375
1766253592.4960914,0,0,13098,1637.250
1766253592.500088,1,1,13095,1636.875
1766253592.5040874,0,0,13090,1636.250
1766253592.5080922,0,0,13097,1637.125
1766253592.5120866,0,0,13098,1637.250
1766253592.5160904,0,0,13097,1637.125
1766253592.5200908,1,1,13095,1636.875
1766253592.5240905,0,0,13090,1636.250
1766253592.5280921,0,0,13096,1637.000
1766253592.5320892,0,0,13099,1637.375
1766253592.5360916,0,0,13098,1637.250
1766253592.5400867,1,1,13095,1636.875
1766253592.5440853,0,0,13090,1636.250
1766253592.5483217,0,0,13096,1637.000
1766253592.5521052,0,0,13097,1637.125
1766253592.5560956,0,0,13097,1637.125
1766253592.560073,1,1,13095,1636.875
1766253592.5640705,0,0,13090,1636.250
1766253592.5680907,0,0,13095,1636.875
1766253592.5720875,0,0,13099,1637.375
1766253592.5760918,0,0,13098,1637.250
1766253592.5800703,1,1,13096,1637.000
1766253592.5840688,0,0,13089,1636.125
1766253592.588085,0,0,13096,1637.000
1766253592.5920868,0,0,13098,1637.250
1766253592.5960937,0,0,13098,1637.250
1766253592.600071,1,1,13096,1637.000
1766253592.604066,0,0,13090,1636.250
1766253592.608084,0,0,13096,1637.000
1766253592.612089,0,0,13099,1637.375
1766253592.61609,0,0,13098,1637.250
1766253592.6200857,1,1,13096,1637.000
1766253592.6240847,0,0,13090,1636.250
1766253592.6280882,0,0,13096,1637.000
1766253592.632086,0,0,13099,1637.375
1766253592.6360877,0,0,13099,1637.375
1766253592.640088,1,1,13097,1637.125
1766253592.6440873,0,0,13091,1636.375
1766253592.6480763,0,0,13095,1636.875
1766253592.6520672,0,0,13099,1637.375
1766253592.6560943,0,0,13098,1637.250
1766253592.6600666,1,1,13097,1637.125
1766253592.664068,0,0,13091,1636.375
1766253592.6680856,0,0,13096,1637.000
1766253592.672083,0,0,13100,1637.500
1766253592.6761386,0,0,13099,1637.375
1766253592.6801333,1,1,13097,1637.125
1766253592.6841257,0,0,13092,1636.500
1766253592.6881287,0,0,13095,1636.875
1766253592.6921263,0,0,13099,1637.375
1766253592.6961303,0,0,13099,1637.375
1766253592.7001262,1,1,13097,1637.125
1766253592.7041261,0,0,13091,1636.375
1766253592.7081227,0,0,13095,1636.875
1766253592.7121067,0,0,13098,1637.250
1766253592.7161467,0,0,13098,1637.250
1766253592.720132,1,1,13097,1637.125
1766253592.724131,0,0,13091,1636.375
1766253592.7281337,0,0,13095,1636.875
1766253592.7321243,0,0,13099,1637.375
1766253592.7361286,0,0,13098,1637.250
1766253592.740131,1,1,13096,1637.000
1766253592.7441273,0,0,13090,1636.250
1766253592.7551515,0,0,13098,1637.250
1766253592.7570732,0,0,13095,1636.875
1766253592.7601116,1,1,13095,1636.875
1766253592.7641113,0,0,13089,1636.125
1766253592.7681277,0,0,13093,1636.625
1766253592.77213,0,0,13098,1637.250
1766253592.7760904,0,0,13098,1637.250
1766253592.7800717,1,1,13097,1637.125
1766253592.7840707,0,0,13091,1636.375
1766253592.7880883,0,0,13094,1636.750
1766253592.792084,0,0,13099,1637.375
1766253592.7960916,0,0,13096,1637.000
1766253592.8000877,1,1,13091,1636.375
1766253592.8040826,0,0,13094,1636.750
1766253592.8080883,0,0,13099,1637.375
1766253592.8120947,0,0,13097,1637.125
1766253592.8160908,0,0,13096,1637.000
1766253592.8200684,1,1,13091,1636.375
1766253592.8240669,0,0,13093,1636.625
1766253592.8280845,0,0,13098,1637.250
1766253592.8320858,0,0,13098,1637.250
1766253592.836089,0,0,13096,1637.000
1766253592.840068,1,1,13091,1636.375
1766253592.8440664,0,0,13093,1636.625
1766253592.848086,0,0,13098,1637.250
1766253592.8520868,0,0,13098,1637.250
1766253592.85609,0,0,13097,1637.125
1766253592.8600845,1,1,13092,1636.500
1766253592.864081,0,0,13093,1636.625
1766253592.8680835,0,0,13098,1637.250
1766253592.8720815,0,0,13098,1637.250
1766253592.876089,0,0,13096,1637.000
1766253592.880086,1,1,13091,1636.375
1766253592.8840802,0,0,13092,1636.500
1766253592.8880844,0,0,13097,1637.125
1766253592.892084,0,0,13098,1637.250
1766253592.8960867,0,0,13096,1637.000
1766253592.9000678,1,1,13091,1636.375
1766253592.9040625,0,0,13091,1636.375
1766253592.9080827,0,0,13097,1637.125
1766253592.9120793,0,0,13098,1637.250
1766253592.9160898,0,0,13096,1637.000
1766253592.9200845,1,1,13092,1636.500
1766253592.9240766,0,0,13093,1636.625
1766253592.9280818,0,0,13097,1637.125
1766253592.9320803,0,0,13099,1637.375
1766253592.936084,0,0,13097,1637.125
1766253592.9400833,1,1,13092,1636.500
1766253592.944081,0,0,13091,1636.375
1766253592.948085,0,0,13098,1637.250
1766253592.952288,0,0,13098,1637.250
1766253592.95611,0,0,13096,1637.000
1766253592.9600708,1,1,13091,1636.375
1766253592.964068,0,0,13091,1636.375
1766253592.9680808,0,0,13098,1637.250
1766253592.9720786,0,0,13099,1637.375
1766253592.9760833,0,0,13097,1637.125
1766253592.9800663,1,1,13093,1636.625
1766253592.9840636,0,0,13092,1636.500
1766253592.9880826,0,0,13098,1637.250
1766253592.9920824,0,0,13098,1637.250
1766253592.9960847,0,0,13096,1637.000
1766253593.0000854,1,1,13092,1636.500
1766253593.004083,0,0,13091,1636.375
1766253593.0080857,0,0,13097,1637.125
1766253593.0121143,0,0,13098,1637.250
1766253593.0161166,0,0,13096,1637.000
1766253593.0200713,1,1,13092,1636.500
1766253593.0240662,0,0,13091,1636.375
1766253593.0280824,0,0,13097,1637.125
1766253593.0320818,0,0,13098,1637.250
1766253593.036084,0,0,13097,1637.125
1766253593.0400665,1,1,13093,1636.625
1766253593.0440657,0,0,13091,1636.375
1766253593.0480835,0,0,13098,1637.250
1766253593.0520813,0,0,13098,1637.250
1766253593.0560818,0,0,13098,1637.250
1766253593.060083,1,1,13094,1636.750
1766253593.0640805,0,0,13092,1636.500
1766253593.0680833,0,0,13098,1637.250
1766253593.0720794,0,0,13098,1637.250
1766253593.0760837,0,0,13097,1637.125
1766253593.0800812,1,1,13094,1636.750
1766253593.084075,0,0,13090,1636.250
1766253593.0880828,0,0,13096,1637.000
1766253593.0920813,0,0,13098,1637.250
1766253593.0960865,0,0,13097,1637.125
1766253593.1000774,1,1,13094,1636.750
1766253593.1040761,0,0,13090,1636.250
1766253593.1080844,0,0,13096,1637.000
1766253593.1120791,0,0,13099,1637.375
1766253593.116082,0,0,13097,1637.125
1766253593.1200805,1,1,13093,1636.625
1766253593.12408,0,0,13090,1636.250
1766253593.1280816,0,0,13097,1637.125
1766253593.132079,0,0,13098,1637.250
1766253593.1360843,0,0,13096,1637.000
1766253593.1400785,1,1,13093,1636.625
1766253593.1440759,0,0,13090,1636.250
1766253593.148067,0,0,13097,1637.125
1766253593.1522682,0,0,13099,1637.375
1766253593.1561077,0,0,13095,1636.875
1766253593.1600704,1,1,13092,1636.500
1766253593.1640635,0,0,13089,1636.125
1766253593.1680624,0,0,13096,1637.000
1766253593.172062,0,0,13098,1637.250
1766253593.1761088,0,0,13097,1637.125
1766253593.180065,1,1,13094,1636.750
1766253593.1840606,0,0,13090,1636.250
1766253593.188079,0,0,13096,1637.000
1766253593.1920786,0,0,13099,1637.375
1766253593.196086,0,0,13097,1637.125
1766253593.200082,1,1,13094,1636.750
1766253593.204081,0,0,13089,1636.125
1766253593.208083,0,0,13096,1637.000
1766253593.2120774,0,0,13098,1637.250
1766253593.2160857,0,0,13096,1637.000
1766253593.2200823,1,1,13094,1636.750
1766253593.2240798,0,0,13089,1636.125
1766253593.2280798,0,0,13095,1636.875
1766253593.232075,0,0,13099,1637.375
1766253593.2360804,0,0,13097,1637.125
1766253593.24008,1,1,13094,1636.750
1766253593.244077,0,0,13089,1636.125
1766253593.2480795,0,0,13096,1637.000
1766253593.252077,0,0,13098,1637.250
1766253593.2560806,0,0,13097,1637.125
1766253593.2600818,1,1,13095,1636.875
1766253593.2640793,0,0,13089,1636.125
1766253593.2680736,0,0,13096,1637.000
1766253593.2720604,0,0,13097,1637.125
1766253593.27613,0,0,13097,1637.125
1766253593.2801301,1,1,13094,1636.750
1766253593.2841234,0,0,13088,1636.000
1766253593.2881272,0,0,13095,1636.875
1766253593.2921178,0,0,13098,1637.250
1766253593.2961245,0,0,13097,1637.125
1766253593.30012,1,1,13094,1636.750
1766253593.3041222,0,0,13089,1636.125
1766253593.3081272,0,0,13095,1636.875
1766253593.3121219,0,0,13098,1637.250
1766253593.3161252,0,0,13097,1637.125
1766253593.320122,1,1,13095,1636.875
1766253593.3241222,0,0,13089,1636.125
1766253593.3281236,0,0,13095,1636.875
1766253593.3321228,0,0,13098,1637.250
1766253593.3361254,0,0,13097,1637.125
1766253593.340405,1,1,13095,1636.875
1766253593.3443248,0,0,13089,1636.125
1766253593.3481438,0,0,13094,1636.750
1766253593.3523285,0,0,13097,1637.125
1766253593.3562245,0,0,13096,1637.000
1766253593.3601274,1,1,13094,1636.750
1766253593.364105,0,0,13089,1636.125
1766253593.368122,0,0,13095,1636.875
1766253593.3721163,0,0,13098,1637.250
1766253593.3760843,0,0,13097,1637.125
1766253593.38006,1,1,13095,1636.875
1766253593.3840575,0,0,13089,1636.125
1766253593.3880796,0,0,13094,1636.750
1766253593.3920786,0,0,13098,1637.250
1766253593.3960836,0,0,13098,1637.250
1766253593.4000623,1,1,13095,1636.875
1766253593.4040577,0,0,13094,1636.750
1766253593.4080775,0,0,13097,1637.125
1766253593.412079,0,0,13097,1637.125
1766253593.4160821,0,0,13095,1636.875
1766253593.4200795,1,1,13089,1636.125
1766253593.4240732,0,0,13094,1636.750
1766253593.4280775,0,0,13098,1637.250
1766253593.4320734,0,0,13097,1637.125
1766253593.4360807,0,0,13095,1636.875
1766253593.4400814,1,1,13089,1636.125
1766253593.4440732,0,0,13094,1636.750
1766253593.4480758,0,0,13099,1637.375
1766253593.4520738,0,0,13097,1637.125
1766253593.4560804,0,0,13095,1636.875
1766253593.4600782,1,1,13089,1636.125
1766253593.464075,0,0,13094,1636.750
1766253593.4680786,0,0,13099,1637.375
1766253593.4720714,0,0,13098,1637.250
1766253593.4761264,0,0,13096,1637.000
1766253593.4801264,1,1,13089,1636.125
1766253593.484119,0,0,13094,1636.750
1766253593.488119,0,0,13098,1637.250
1766253593.492117,0,0,13098,1637.250
1766253593.4961224,0,0,13095,1636.875
1766253593.5001194,1,1,13090,1636.250
1766253593.5041182,0,0,13093,1636.625
1766253593.5081244,0,0,13097,1637.125
1766253593.512117,0,0,13098,1637.250
1766253593.5161233,0,0,13095,1636.875
1766253593.5201187,1,1,13090,1636.250
1766253593.5241194,0,0,13094,1636.750
1766253593.5281236,0,0,13098,1637.250
1766253593.5321155,0,0,13097,1637.125
1766253593.536119,0,0,13095,1636.875
1766253593.540119,1,1,13089,1636.125
1766253593.5441175,0,0,13092,1636.500
1766253593.5481226,0,0,13097,1637.125
1766253593.5522058,0,0,13096,1637.000
1766253593.5561488,0,0,13092,1636.500
1766253593.5601056,1,1,13087,1635.875
1766253593.5641026,0,0,13091,1636.375
1766253593.5681245,0,0,13096,1637.000
1766253593.5721207,0,0,13096,1637.000
1766253593.5760832,0,0,13095,1636.875
1766253593.5800571,1,1,13088,1636.000
1766253593.5840576,0,0,13092,1636.500
1766253593.5880744,0,0,13096,1637.000
1766253593.592074,0,0,13097,1637.125
1766253593.5960753,0,0,13095,1636.875
1766253593.600071,1,1,13090,1636.250
1766253593.6040704,0,0,13091,1636.375
1766253593.608076,0,0,13097,1637.125
1766253593.612073,0,0,13098,1637.250
1766253593.6160755,0,0,13096,1637.000
1766253593.6200542,1,1,13091,1636.375
1766253593.6240532,0,0,13091,1636.375
1766253593.62807,0,0,13097,1637.125
1766253593.6320717,0,0,13097,1637.125
1766253593.6360743,0,0,13095,1636.875
1766253593.6400695,1,1,13090,1636.250
1766253593.644068,0,0,13091,1636.375
1766253593.6480644,0,0,13097,1637.125
1766253593.652056,0,0,13098,1637.250
1766253593.6560774,0,0,13095,1636.875
1766253593.6600707,1,1,13090,1636.250
1766253593.6640685,0,0,13090,1636.250
1766253593.668072,0,0,13096,1637.000
1766253593.672068,0,0,13097,1637.125
1766253593.6761255,0,0,13095,1636.875
1766253593.6801012,1,1,13090,1636.250
1766253593.6840935,0,0,13090,1636.250
1766253593.6881132,0,0,13095,1636.875
1766253593.6921163,0,0,13097,1637.125
1766253593.6961207,0,0,13095,1636.875
1766253593.7001133,1,1,13091,1636.375
1766253593.7041085,0,0,13091,1636.375
1766253593.708116,0,0,13097,1637.125
1766253593.7121122,0,0,13097,1637.125
1766253593.7161167,0,0,13095,1636.875
1766253593.7201138,1,1,13091,1636.375
1766253593.7241113,0,0,13090,1636.250
1766253593.7281165,0,0,13097,1637.125
1766253593.7321084,0,0,13097,1637.125
1766253593.736115,0,0,13095,1636.875
1766253593.740116,1,1,13091,1636.375
1766253593.744113,0,0,13090,1636.250
1766253593.7481124,0,0,13096,1637.000
1766253593.7587469,1,1,13093,1636.625
1766253593.760797,1,1,13093,1636.625
1766253593.7641206,0,0,13089,1636.125
1766253593.7681117,0,0,13096,1637.000
1766253593.7720928,0,0,13097,1637.125
1766253593.7760947,0,0,13096,1637.000
1766253593.7800732,1,1,13092,1636.500
1766253593.7840705,0,0,13090,1636.250
1766253593.788061,0,0,13097,1637.125
1766253593.7920504,0,0,13097,1637.125
1766253593.7960806,0,0,13096,1637.000
1766253593.8000722,1,1,13092,1636.500
1766253593.8040721,0,0,13089,1636.125
1766253593.808074,0,0,13096,1637.000
1766253593.812068,0,0,13098,1637.250
1766253593.8160727,0,0,13096,1637.000
1766253593.8200693,1,1,13093,1636.625
1766253593.8240702,0,0,13090,1636.250
1766253593.8280635,0,0,13097,1637.125
1766253593.8320513,0,0,13098,1637.250
1766253593.83607,0,0,13097,1637.125
1766253593.8400712,1,1,13093,1636.625
1766253593.8440707,0,0,13090,1636.250
1766253593.8480735,0,0,13097,1637.125
1766253593.8520741,0,0,13098,1637.250
1766253593.856073,0,0,13097,1637.125
1766253593.8600667,1,1,13093,1636.625
1766253593.864071,0,0,13089,1636.125
1766253593.8680747,0,0,13096,1637.000
1766253593.8720684,0,0,13098,1637.250
1766253593.8761215,0,0,13096,1637.000
1766253593.880114,1,1,13093,1636.625
1766253593.88411,0,0,13089,1636.125
1766253593.888118,0,0,13095,1636.875
1766253593.892113,0,0,13097,1637.125
1766253593.8961165,0,0,13095,1636.875
1766253593.900094,1,1,13092,1636.500
1766253593.9040923,0,0,13088,1636.000
1766253593.908112,0,0,13095,1636.875
1766253593.9121141,0,0,13097,1637.125
1766253593.91612,0,0,13095,1636.875
1766253593.9201121,1,1,13092,1636.500
1766253593.9241114,0,0,13088,1636.000
1766253593.928115,0,0,13094,1636.750
1766253593.9321136,0,0,13096,1637.000
1766253593.9361174,0,0,13095,1636.875
1766253593.9401097,1,1,13093,1636.625
1766253593.944109,0,0,13088,1636.000
1766253593.9481144,0,0,13095,1636.875
1766253593.9521062,0,0,13096,1637.000
1766253593.956343,0,0,13095,1636.875
1766253593.960116,1,1,13092,1636.500
1766253593.9640949,0,0,13087,1635.875
1766253593.9681137,0,0,13094,1636.750
1766253593.972113,0,0,13098,1637.250
1766253593.976078,0,0,13096,1637.000
1766253593.9800565,1,1,13093,1636.625
1766253593.9840486,0,0,13087,1635.875
1766253593.9880707,0,0,13095,1636.875
1766253593.992066,0,0,13097,1637.125
1766253593.9960732,0,0,13096,1637.000
1766253594.0000694,1,1,13093,1636.625
1766253594.0040698,0,0,13087,1635.875
1766253594.0080574,0,0,13094,1636.750
1766253594.0120475,0,0,13098,1637.250
1766253594.0161495,0,0,13094,1636.750
1766253594.0201435,1,1,13088,1636.000
1766253594.0240724,0,0,13095,1636.875
1766253594.0280602,0,0,13097,1637.125
1766253594.0320475,0,0,13096,1637.000
1766253594.0360913,0,0,13094,1636.750
1766253594.0400712,1,1,13088,1636.000
1766253594.0440676,0,0,13095,1636.875
1766253594.0480735,0,0,13097,1637.125
1766253594.052053,0,0,13096,1637.000
1766253594.0560772,0,0,13093,1636.625
1766253594.0600522,1,1,13087,1635.875
1766253594.0640497,0,0,13094,1636.750
1766253594.0680645,0,0,13097,1637.125
1766253594.0720623,0,0,13095,1636.875
1766253594.076071,0,0,13093,1636.625
1766253594.080055,1,1,13087,1635.875
1766253594.0840504,0,0,13094,1636.750
1766253594.0880687,0,0,13097,1637.125
1766253594.0920663,0,0,13097,1637.125
1766253594.0960712,0,0,13094,1636.750
1766253594.1000652,1,1,13088,1636.000
1766253594.104068,0,0,13094,1636.750
1766253594.108072,0,0,13097,1637.125
1766253594.112067,0,0,13097,1637.125
1766253594.11607,0,0,13095,1636.875
1766253594.1200666,1,1,13089,1636.125
1766253594.1240678,0,0,13094,1636.750
1766253594.1280704,0,0,13098,1637.250
1766253594.132067,0,0,13098,1637.250
1766253594.1360703,0,0,13095,1636.875
1766253594.1400645,1,1,13089,1636.125
1766253594.1440642,0,0,13095,1636.875
1766253594.1480603,0,0,13099,1637.375
1766253594.1520498,0,0,13097,1637.125
1766253594.1562538,0,0,13095,1636.875
1766253594.16007,1,1,13088,1636.000
1766253594.1640506,0,0,13094,1636.750
1766253594.168067,0,0,13097,1637.125
1766253594.1720672,0,0,13097,1637.125
1766253594.1760743,0,0,13095,1636.875
1766253594.1800473,1,1,13088,1636.000
1766253594.1840463,0,0,13093,1636.625
1766253594.1880496,0,0,13098,1637.250
1766253594.1920485,0,0,13097,1637.125
1766253594.1960907,0,0,13094,1636.750
1766253594.2000675,1,1,13088,1636.000
1766253594.2040637,0,0,13093,1636.625
1766253594.208066,0,0,13097,1637.125
1766253594.2120636,0,0,13097,1637.125
1766253594.2160702,0,0,13095,1636.875
1766253594.2200649,1,1,13088,1636.000
1766253594.224062,0,0,13093,1636.625
1766253594.2280653,0,0,13097,1637.125
1766253594.2320614,0,0,13097,1637.125
1766253594.2360706,0,0,13095,1636.875
1766253594.2400668,1,1,13089,1636.125
1766253594.2440608,0,0,13093,1636.625
1766253594.2480657,0,0,13098,1637.250
1766253594.2520623,0,0,13098,1637.250
1766253594.2560687,0,0,13096,1637.000
1766253594.260062,1,1,13089,1636.125
1766253594.2640593,0,0,13093,1636.625
1766253594.2680633,0,0,13098,1637.250
1766253594.2720625,0,0,13097,1637.125
1766253594.27612,0,0,13095,1636.875
1766253594.280112,1,1,13089,1636.125
1766253594.2841067,0,0,13092,1636.500
1766253594.2881105,0,0,13097,1637.125
1766253594.2921062,0,0,13097,1637.125
1766253594.2961144,0,0,13096,1637.000
1766253594.3001075,1,1,13090,1636.250
1766253594.3041067,0,0,13092,1636.500
1766253594.3080976,0,0,13096,1637.000
1766253594.312086,0,0,13096,1637.000
1766253594.3161178,0,0,13094,1636.750
1766253594.3201096,1,1,13089,1636.125
1766253594.3241098,0,0,13092,1636.500
1766253594.328113,0,0,13096,1637.000
1766253594.332101,0,0,13097,1637.125
1766253594.3361068,0,0,13095,1636.875
1766253594.340388,1,0,13088,1636.000
1766253594.344311,0,0,13090,1636.250
1766253594.3481445,0,0,13096,1637.000
1766253594.3521092,0,0,13096,1637.000
1766253594.3562374,1,1,13095,1636.875
1766253594.3601122,1,1,13089,1636.125
1766253594.3640895,0,0,13090,1636.250
1766253594.3681104,0,0,13097,1637.125
1766253594.3721094,0,0,13097,1637.125
1766253594.3760698,0,0,13095,1636.875
1766253594.38005,1,1,13089,1636.125
1766253594.3840473,0,0,13091,1636.375
1766253594.3880682,0,0,13097,1637.125
1766253594.3920653,0,0,13097,1637.125
1766253594.3960667,0,0,13095,1636.875
1766253594.4000478,1,1,13089,1636.125
1766253594.4040494,0,0,13091,1636.375
1766253594.408066,0,0,13097,1637.125
1766253594.4120624,0,0,13097,1637.125
1766253594.4160664,0,0,13095,1636.875
1766253594.420061,1,1,13089,1636.125
1766253594.4240592,0,0,13090,1636.250
1766253594.428066,0,0,13096,1637.000
1766253594.4320626,0,0,13097,1637.125
1766253594.4360714,0,0,13095,1636.875
1766253594.4400778,1,1,13088,1636.000
1766253594.4440653,0,0,13089,1636.125
1766253594.4480596,0,0,13096,1637.000
1766253594.4520495,0,0,13097,1637.125
1766253594.4560888,1,1,13094,1636.750
1766253594.460063,1,1,13090,1636.250
1766253594.4640625,0,0,13089,1636.125
1766253594.4680548,0,0,13095,1636.875
1766253594.4720464,0,0,13096,1637.000
1766253594.4760935,1,1,13095,1636.875
1766253594.4800665,1,1,13090,1636.250
1766253594.4840634,0,0,13089,1636.125
1766253594.4880652,0,0,13095,1636.875
1766253594.4920592,0,0,13096,1637.000
1766253594.4960675,1,1,13093,1636.625
1766253594.5000625,1,1,13090,1636.250
1766253594.5040596,0,0,13089,1636.125
1766253594.5080612,0,0,13095,1636.875
1766253594.51206,0,0,13097,1637.125
1766253594.516068,1,1,13094,1636.750
1766253594.5200636,1,1,13090,1636.250
1766253594.52406,0,0,13088,1636.000
1766253594.528064,0,0,13095,1636.875
1766253594.53206,0,0,13096,1637.000
1766253594.536069,1,1,13095,1636.875
1766253594.540062,1,1,13090,1636.250
1766253594.5440612,0,0,13087,1635.875
1766253594.548064,0,0,13095,1636.875
1766253594.5520587,0,0,13096,1637.000
1766253594.5561893,1,1,13094,1636.750
1766253594.5600653,1,1,13090,1636.250
1766253594.56405,0,0,13087,1635.875
1766253594.5680604,0,0,13094,1636.750
1766253594.5720587,0,0,13095,1636.875
1766253594.576065,1,1,13094,1636.750
1766253594.5800462,1,1,13091,1636.375
1766253594.5840442,0,0,13088,1636.000
1766253594.588064,0,0,13095,1636.875
1766253594.5920599,0,0,13097,1637.125
1766253594.5960639,1,1,13095,1636.875
1766253594.6000586,1,1,13091,1636.375
1766253594.6040626,0,0,13088,1636.000
1766253594.608067,0,0,13095,1636.875
1766253594.612058,0,0,13097,1637.125
1766253594.6160653,1,1,13095,1636.875
1766253594.6200614,1,1,13092,1636.500
1766253594.6240616,0,0,13095,1636.875
1766253594.628052,0,0,13096,1637.000
1766253594.6320412,0,0,13095,1636.875
1766253594.6360605,1,1,13092,1636.500
1766253594.6400695,1,0,13088,1636.000
1766253594.6440473,0,0,13094,1636.750
1766253594.6480618,0,0,13096,1637.000
1766253594.6520476,0,0,13095,1636.875
1766253594.6560779,1,1,13091,1636.375
1766253594.6600423,1,0,13087,1635.875
1766253594.664042,0,0,13094,1636.750
1766253594.6680424,0,0,13096,1637.000
1766253594.6720417,0,0,13094,1636.750
1766253594.676064,1,1,13092,1636.500
1766253594.6800435,0,0,13087,1635.875
1766253594.6840396,0,0,13094,1636.750
1766253594.6880436,0,0,13096,1637.000
1766253594.692041,0,0,13095,1636.875
1766253594.6961071,1,1,13092,1636.500
1766253594.7000487,0,0,13087,1635.875
1766253594.7040396,0,0,13094,1636.750
1766253594.7080407,0,0,13096,1637.000
1766253594.7120426,0,0,13095,1636.875
1766253594.7160678,1,1,13092,1636.500
1766253594.7200413,0,0,13087,1635.875
1766253594.7240403,0,0,13094,1636.750
1766253594.7280428,0,0,13096,1637.000
1766253594.732042,0,0,13095,1636.875
1766253594.7360709,1,1,13092,1636.500
1766253594.7400434,0,0,13087,1635.875
1766253594.7440376,0,0,13094,1636.750
1766253594.7480612,0,0,13097,1637.125
1766253594.7520607,0,0,13096,1637.000
1766253594.761485,0,0,13088,1636.000
1766253594.764169,0,0,13094,1636.750
1766253594.76806,0,0,13096,1637.000
1766253594.7720456,0,0,13095,1636.875
1766253594.776133,1,1,13093,1636.625
1766253594.780053,0,0,13087,1635.875
1766253594.7840412,0,0,13094,1636.750
1766253594.7880619,0,0,13097,1637.125
1766253594.7920578,0,0,13094,1636.750
1766253594.7960641,1,1,13092,1636.500
1766253594.8000443,0,0,13087,1635.875
1766253594.804042,0,0,13094,1636.750
1766253594.8080616,0,0,13096,1637.000
1766253594.8120553,0,0,13095,1636.875
1766253594.8160627,1,1,13093,1636.625
1766253594.8200586,0,0,13088,1636.000
1766253594.8240576,0,0,13094,1636.750
1766253594.8280592,0,0,13097,1637.125
1766253594.8320534,0,0,13095,1636.875
1766253594.8360634,1,1,13093,1636.625
1766253594.8400586,0,0,13087,1635.875
1766253594.8440573,0,0,13094,1636.750
1766253594.8480604,0,0,13097,1637.125
1766253594.8520594,0,0,13096,1637.000
1766253594.8560596,1,1,13094,1636.750
1766253594.8600554,0,0,13088,1636.000
1766253594.8640566,0,0,13093,1636.625
1766253594.8680513,0,0,13096,1637.000
1766253594.8720367,0,0,13095,1636.875
1766253594.876081,1,1,13093,1636.625
1766253594.8800647,0,0,13088,1636.000
1766253594.8840585,0,0,13093,1636.625
1766253594.888062,0,0,13096,1637.000
1766253594.8920534,0,0,13096,1637.000
1766253594.8960812,1,1,13093,1636.625
1766253594.90004,0,0,13087,1635.875
1766253594.9040413,0,0,13093,1636.625
1766253594.908057,0,0,13096,1637.000
1766253594.9120572,0,0,13096,1637.000
1766253594.9160585,1,1,13093,1636.625
1766253594.920054,0,0,13087,1635.875
1766253594.9240553,0,0,13092,1636.500
1766253594.9280612,0,0,13096,1637.000
1766253594.932058,0,0,13095,1636.875
1766253594.9360578,1,1,13094,1636.750
1766253594.9400525,0,0,13086,1635.750
1766253594.9440548,0,0,13091,1636.375
1766253594.9480605,0,0,13096,1637.000
1766253594.952058,0,0,13095,1636.875
1766253594.9560616,1,1,13093,1636.625
1766253594.9602654,0,0,13086,1635.750
1766253594.9640703,0,0,13091,1636.375
1766253594.9680555,0,0,13095,1636.875
1766253594.972041,0,0,13095,1636.875
1766253594.9760876,1,1,13092,1636.500
1766253594.980054,0,0,13087,1635.875
1766253594.9840539,0,0,13092,1636.500
1766253594.9880502,0,0,13095,1636.875
1766253594.9920378,0,0,13094,1636.750
1766253594.9960833,1,1,13093,1636.625
1766253595.0000594,0,0,13087,1635.875
1766253595.0040553,0,0,13091,1636.375
1766253595.0080602,0,0,13095,1636.875
1766253595.0120575,0,0,13095,1636.875
1766253595.0160654,1,1,13093,1636.625
1766253595.0200586,0,0,13087,1635.875
1766253595.0240533,0,0,13091,1636.375
1766253595.0280592,0,0,13096,1637.000
1766253595.0320575,0,0,13095,1636.875
1766253595.0360613,1,1,13094,1636.750
1766253595.040056,0,0,13088,1636.000
1766253595.0440545,0,0,13091,1636.375
1766253595.0480583,0,0,13096,1637.000
1766253595.052056,0,0,13096,1637.000
1766253595.0560617,1,1,13094,1636.750
1766253595.0600574,0,0,13088,1636.000
1766253595.0640543,0,0,13091,1636.375
1766253595.0680568,0,0,13096,1637.000
1766253595.0720515,0,0,13096,1637.000
1766253595.0760643,1,1,13095,1636.875
1766253595.0800571,0,0,13089,1636.125
1766253595.0840538,0,0,13091,1636.375
1766253595.0880578,0,0,13096,1637.000
1766253595.0920527,0,0,13095,1636.875
1766253595.0960588,1,1,13094,1636.750
1766253595.1000555,0,0,13088,1636.000
1766253595.1040547,0,0,13091,1636.375
1766253595.1080582,0,0,13096,1637.000
1766253595.1120524,0,0,13097,1637.125
1766253595.1160915,1,1,13095,1636.875
1766253595.1200562,0,0,13089,1636.125
1766253595.124056,0,0,13091,1636.375
1766253595.1280599,0,0,13096,1637.000
1766253595.1320524,0,0,13096,1637.000
1766253595.136059,1,1,13094,1636.750
1766253595.140055,0,0,13089,1636.125
1766253595.1440535,0,0,13089,1636.125
1766253595.148048,0,0,13095,1636.875
1766253595.1520338,0,0,13096,1637.000
1766253595.1560671,1,1,13094,1636.750
1766253595.160266,0,0,13089,1636.125
1766253595.1640713,0,0,13089,1636.125
1766253595.168053,0,0,13095,1636.875
1766253595.1720347,0,0,13093,1636.625
1766253595.17608,1,1,13093,1636.625
1766253595.1800544,0,0,13089,1636.125
1766253595.1840544,0,0,13090,1636.250
1766253595.1880481,0,0,13094,1636.750
1766253595.1920366,0,0,13096,1637.000
1766253595.1960819,1,1,13094,1636.750
1766253595.2000546,0,0,13089,1636.125
1766253595.2040553,0,0,13089,1636.125
1766253595.2080505,0,0,13095,1636.875
1766253595.2122765,0,0,13095,1636.875
1766253595.2160842,1,1,13095,1636.875
1766253595.2200394,0,0,13090,1636.250
1766253595.2240343,0,0,13089,1636.125
1766253595.2280536,0,0,13096,1637.000
1766253595.232053,0,0,13096,1637.000
1766253595.2360592,1,1,13090,1636.250
1766253595.2400336,0,0,13087,1635.875
1766253595.2440312,0,0,13094,1636.750
1766253595.2480562,0,0,13096,1637.000
1766253595.252056,0,0,13095,1636.875
1766253595.2560585,1,1,13090,1636.250
1766253595.260053,0,0,13088,1636.000
1766253595.264051,0,0,13095,1636.875
1766253595.2680545,0,0,13096,1637.000
1766253595.2720525,0,0,13094,1636.750
1766253595.2760744,1,1,13090,1636.250
1766253595.2800384,0,0,13089,1636.125
1766253595.2840354,0,0,13095,1636.875
1766253595.288053,0,0,13096,1637.000
1766253595.292054,0,0,13095,1636.875
1766253595.296058,1,1,13090,1636.250
1766253595.3000388,0,0,13088,1636.000
1766253595.3040318,0,0,13095,1636.875
1766253595.3080528,0,0,13096,1637.000
1766253595.3120534,0,0,13094,1636.750
1766253595.3160858,1,1,13090,1636.250
1766253595.3200548,0,0,13087,1635.875
1766253595.324048,0,0,13094,1636.750
1766253595.3280528,0,0,13096,1637.000
1766253595.3320508,0,0,13095,1636.875
1766253595.3360772,1,1,13091,1636.375
1766253595.340401,0,0,13087,1635.875
1766253595.3442273,0,0,13094,1636.750
1766253595.3480814,0,0,13095,1636.875
1766253595.3520522,0,0,13094,1636.750
1766253595.3560905,1,1,13091,1636.375
1766253595.3602672,0,0,13087,1635.875
1766253595.3640661,0,0,13093,1636.625
1766253595.3680425,0,0,13095,1636.875
1766253595.3720317,0,0,13094,1636.750
1766253595.3760676,1,1,13090,1636.250
1766253595.3800585,0,0,13087,1635.875
1766253595.3840528,0,0,13094,1636.750
1766253595.3880398,0,0,13095,1636.875
1766253595.3920314,0,0,13094,1636.750
1766253595.3960686,1,1,13091,1636.375
1766253595.4001875,0,0,13087,1635.875
1766253595.4040387,0,0,13094,1636.750
1766253595.4080517,0,0,13096,1637.000
1766253595.412049,0,0,13094,1636.750
1766253595.4160807,1,1,13091,1636.375
1766253595.4200537,0,0,13087,1635.875
1766253595.424051,0,0,13094,1636.750
1766253595.4280434,0,0,13096,1637.000
1766253595.4320316,0,0,13094,1636.750
1766253595.4361572,1,1,13091,1636.375
1766253595.4400544,0,0,13087,1635.875
1766253595.4440513,0,0,13094,1636.750
1766253595.4480526,0,0,13096,1637.000
1766253595.4520493,0,0,13095,1636.875
1766253595.4560723,1,1,13093,1636.625
1766253595.460047,0,0,13088,1636.000
1766253595.464052,0,0,13095,1636.875
1766253595.4680567,0,0,13097,1637.125
1766253595.4720492,0,0,13095,1636.875
1766253595.4760725,1,1,13092,1636.500
1766253595.4800513,0,0,13087,1635.875
1766253595.4840477,0,0,13093,1636.625
1766253595.488054,0,0,13096,1637.000
1766253595.4920626,0,0,13094,1636.750
1766253595.4960816,1,1,13091,1636.375
1766253595.5000315,0,0,13087,1635.875
1766253595.5040307,0,0,13094,1636.750
1766253595.508048,0,0,13096,1637.000
1766253595.5120485,0,0,13096,1637.000
1766253595.5160758,1,1,13092,1636.500
1766253595.5200336,0,0,13087,1635.875
1766253595.5240312,0,0,13093,1636.625
1766253595.5280507,0,0,13096,1637.000
1766253595.53205,0,0,13094,1636.750
1766253595.5360763,1,1,13092,1636.500
1766253595.5400515,0,0,13087,1635.875
1766253595.5440452,0,0,13094,1636.750
1766253595.5480506,0,0,13097,1637.125
1766253595.552047,0,0,13095,1636.875
1766253595.5560749,1,1,13093,1636.625
1766253595.560252,0,0,13087,1635.875
1766253595.5640643,0,0,13094,1636.750
1766253595.568045,0,0,13096,1637.000
1766253595.5720348,0,0,13095,1636.875
1766253595.5760763,1,1,13093,1636.625
1766253595.5800512,0,0,13088,1636.000
1766253595.584047,0,0,13093,1636.625
1766253595.5880394,0,0,13096,1637.000
1766253595.592029,0,0,13096,1637.000
1766253595.5960824,1,1,13093,1636.625
1766253595.600053,0,0,13087,1635.875
1766253595.6040442,0,0,13093,1636.625
1766253595.6080482,0,0,13096,1637.000
1766253595.6120448,0,0,13095,1636.875
1766253595.6160786,1,1,13093,1636.625
1766253595.6200473,0,0,13088,1636.000
1766253595.624046,0,0,13093,1636.625
1766253595.62805,0,0,13096,1637.000
1766253595.6320443,0,0,13095,1636.875
1766253595.6360736,1,1,13093,1636.625
1766253595.6400504,0,0,13088,1636.000
1766253595.6440468,0,0,13093,1636.625
1766253595.6480346,0,0,13097,1637.125
1766253595.6520264,0,0,13096,1637.000
1766253595.656064,1,1,13093,1636.625
1766253595.6600363,0,0,13087,1635.875
1766253595.6640296,0,0,13093,1636.625
1766253595.6680446,0,0,13096,1637.000
1766253595.6720433,0,0,13095,1636.875
1766253595.6760726,1,1,13093,1636.625
1766253595.680049,0,0,13087,1635.875
1766253595.6840448,0,0,13093,1636.625
1766253595.688049,0,0,13096,1637.000
1766253595.6920428,0,0,13095,1636.875
1766253595.6960742,1,1,13093,1636.625
1766253595.7000434,0,0,13087,1635.875
1766253595.7040448,0,0,13092,1636.500
1766253595.708049,0,0,13096,1637.000
1766253595.7120414,0,0,13095,1636.875
1766253595.716071,1,1,13093,1636.625
1766253595.7200286,0,0,13087,1635.875
1766253595.724028,0,0,13092,1636.500
1766253595.728047,0,0,13096,1637.000
1766253595.7320492,0,0,13096,1637.000
1766253595.7360678,1,1,13094,1636.750
1766253595.740042,0,0,13088,1636.000
1766253595.744044,0,0,13092,1636.500
1766253595.74805,0,0,13096,1637.000
1766253595.752043,0,0,13096,1637.000
1766253595.7560678,1,1,13094,1636.750
1766253595.7654755,0,0,13096,1637.000
1766253595.7681577,0,0,13096,1637.000
1766253595.7720506,0,0,13095,1636.875
1766253595.7760859,1,1,13094,1636.750
1766253595.7800312,0,0,13087,1635.875
1766253595.7840347,0,0,13090,1636.250
1766253595.788037,0,0,13096,1637.000
1766253595.792029,0,0,13096,1637.000
1766253595.796063,1,1,13095,1636.875
1766253595.8000433,0,0,13088,1636.000
1766253595.8040397,0,0,13091,1636.375
1766253595.808035,0,0,13096,1637.000
1766253595.812029,0,0,13096,1637.000
1766253595.8160691,1,1,13095,1636.875
1766253595.8200474,0,0,13087,1635.875
1766253595.8240435,0,0,13090,1636.250
1766253595.828048,0,0,13096,1637.000
1766253595.8320422,0,0,13096,1637.000
1766253595.8360767,1,1,13093,1636.625
1766253595.840048,0,0,13088,1636.000
1766253595.8440416,0,0,13095,1636.875
1766253595.848045,0,0,13096,1637.000
1766253595.852052,0,0,13094,1636.750
1766253595.85607,1,1,13089,1636.125
1766253595.8600457,0,0,13091,1636.375
1766253595.8640401,0,0,13096,1637.000
1766253595.8680477,0,0,13096,1637.000
1766253595.8720412,0,0,13094,1636.750
1766253595.8760722,1,1,13089,1636.125
1766253595.8800461,0,0,13091,1636.375
1766253595.8840466,0,0,13096,1637.000
1766253595.8880475,0,0,13097,1637.125
1766253595.892039,0,0,13095,1636.875
1766253595.8960686,1,1,13090,1636.250
1766253595.900031,0,0,13091,1636.375
1766253595.9040284,0,0,13096,1637.000
1766253595.908024,0,0,13096,1637.000
1766253595.9120257,0,0,13094,1636.750
1766253595.9160707,1,1,13090,1636.250
1766253595.9200492,0,0,13090,1636.250
1766253595.9240434,0,0,13096,1637.000
1766253595.9280472,0,0,13096,1637.000
1766253595.9320428,0,0,13094,1636.750
1766253595.9360695,1,1,13088,1636.000
1766253595.9400423,0,0,13089,1636.125
1766253595.9440436,0,0,13096,1637.000
1766253595.9480479,0,0,13097,1637.125
1766253595.9520402,0,0,13095,1636.875
1766253595.9560642,1,1,13090,1636.250
1766253595.9600453,0,0,13089,1636.125
1766253595.9642615,0,0,13095,1636.875
1766253595.968056,0,0,13096,1637.000
1766253595.9720266,0,0,13094,1636.750
1766253595.976075,1,1,13090,1636.250
1766253595.9800456,0,0,13089,1636.125
1766253595.9840434,0,0,13096,1637.000
1766253595.9880378,0,0,13097,1637.125
1766253595.9920273,0,0,13096,1637.000
1766253595.996068,1,1,13091,1636.375
1766253596.000044,0,0,13089,1636.125
1766253596.004043,0,0,13096,1637.000
1766253596.0080464,0,0,13097,1637.125
1766253596.0120406,0,0,13095,1636.875
1766253596.016074,1,1,13092,1636.500
1766253596.0200403,0,0,13090,1636.250
1766253596.0240386,0,0,13096,1637.000
1766253596.028044,0,0,13097,1637.125
1766253596.0320406,0,0,13095,1636.875
1766253596.0360768,1,1,13091,1636.375
1766253596.0400445,0,0,13089,1636.125
1766253596.0440555,0,0,13096,1637.000
1766253596.048033,0,0,13097,1637.125
1766253596.0520265,0,0,13096,1637.000
1766253596.056063,1,1,13091,1636.375
1766253596.0600433,0,0,13090,1636.250
1766253596.0640385,0,0,13096,1637.000
1766253596.0680325,0,0,13097,1637.125
1766253596.0720248,0,0,13095,1636.875
1766253596.0760617,1,1,13091,1636.375
1766253596.0800433,0,0,13089,1636.125
1766253596.0840404,0,0,13096,1637.000
1766253596.0880456,0,0,13097,1637.125
1766253596.0920427,0,0,13096,1637.000
1766253596.0960724,1,1,13092,1636.500
1766253596.1000438,0,0,13088,1636.000
1766253596.104039,0,0,13095,1636.875
1766253596.1080425,0,0,13097,1637.125
1766253596.1120396,0,0,13095,1636.875
1766253596.116073,1,1,13092,1636.500
1766253596.120044,0,0,13089,1636.125
1766253596.1240382,0,0,13095,1636.875
1766253596.1280413,0,0,13097,1637.125
1766253596.1320393,0,0,13095,1636.875
1766253596.136067,1,1,13092,1636.500
1766253596.1400425,0,0,13088,1636.000
1766253596.144041,0,0,13094,1636.750
1766253596.1480324,0,0,13097,1637.125
1766253596.1520224,0,0,13096,1637.000
1766253596.1560597,1,1,13092,1636.500
1766253596.1600451,0,0,13088,1636.000
1766253596.1642518,0,0,13095,1636.875
1766253596.1680543,0,0,13096,1637.000
1766253596.172023,0,0,13095,1636.875
1766253596.1760676,1,1,13091,1636.375
1766253596.180045,0,0,13087,1635.875
1766253596.184041,0,0,13094,1636.750
1766253596.1880305,0,0,13096,1637.000
1766253596.1920207,0,0,13095,1636.875
1766253596.196068,1,1,13092,1636.500
1766253596.200043,0,0,13087,1635.875
1766253596.204038,0,0,13094,1636.750
1766253596.2080436,0,0,13097,1637.125
1766253596.2120376,0,0,13095,1636.875
1766253596.2160714,1,1,13093,1636.625
1766253596.2200375,0,0,13087,1635.875
1766253596.2240388,0,0,13095,1636.875
1766253596.228033,0,0,13097,1637.125
1766253596.232021,0,0,13095,1636.875
1766253596.2360563,1,1,13092,1636.500
1766253596.2400405,0,0,13087,1635.875
1766253596.2440386,0,0,13094,1636.750
1766253596.2480445,0,0,13096,1637.000
1766253596.2520394,0,0,13095,1636.875
1766253596.2560608,1,1,13093,1636.625
1766253596.2600353,0,0,13088,1636.000
1766253596.264038,0,0,13095,1636.875
1766253596.2680428,0,0,13097,1637.125
1766253596.2720373,0,0,13095,1636.875
1766253596.276067,1,1,13092,1636.500
1766253596.2800393,0,0,13087,1635.875
1766253596.2840395,0,0,13093,1636.625
1766253596.288042,0,0,13096,1637.000
1766253596.292038,0,0,13095,1636.875
1766253596.2960632,1,1,13093,1636.625
1766253596.30004,0,0,13086,1635.750
1766253596.3040361,0,0,13093,1636.625
1766253596.3080385,0,0,13095,1636.875
1766253596.3120391,0,0,13094,1636.750
1766253596.3160691,1,1,13092,1636.500
1766253596.3200376,0,0,13086,1635.750
1766253596.3241203,0,0,13093,1636.625
1766253596.3281755,0,0,13095,1636.875
1766253596.3320422,0,0,13094,1636.750
1766253596.3360667,1,1,13093,1636.625
1766253596.340343,0,0,13087,1635.875
1766253596.3441963,0,0,13092,1636.500
1766253596.3480785,0,0,13096,1637.000
1766253596.3520432,0,0,13095,1636.875
1766253596.3560655,1,1,13092,1636.500
1766253596.3600292,0,0,13085,1635.625
1766253596.3641262,0,0,13091,1636.375
1766253596.368045,0,0,13093,1636.625
1766253596.3720202,0,0,13094,1636.750
1766253596.3760567,1,1,13093,1636.625
1766253596.3800457,0,0,13086,1635.750
1766253596.3840353,0,0,13092,1636.500
1766253596.3880272,0,0,13096,1637.000
1766253596.392021,0,0,13095,1636.875
1766253596.3960583,1,1,13093,1636.625
1766253596.400239,0,0,13086,1635.750
1766253596.4040632,0,0,13092,1636.500
1766253596.4083629,0,0,13095,1636.875
1766253596.4122667,0,0,13095,1636.875
1766253596.4160795,1,1,13093,1636.625
1766253596.4200265,0,0,13087,1635.875
1766253596.4240215,0,0,13093,1636.625
1766253596.4280164,0,0,13097,1637.125
1766253596.4320183,0,0,13097,1637.125
1766253596.4360523,1,1,13094,1636.750
1766253596.4400237,0,0,13086,1635.750
1766253596.4440212,0,0,13092,1636.500
1766253596.4480345,0,0,13096,1637.000
1766253596.4520383,0,0,13094,1636.750
1766253596.4560645,1,1,13087,1635.875
1766253596.4600413,0,0,13092,1636.500
1766253596.4640386,0,0,13097,1637.125
1766253596.4680407,0,0,13096,1637.000
1766253596.472034,0,0,13094,1636.750
1766253596.4760633,1,1,13088,1636.000
1766253596.480042,0,0,13093,1636.625
1766253596.4840362,0,0,13096,1637.000
1766253596.4880424,0,0,13096,1637.000
1766253596.4920342,0,0,13094,1636.750
1766253596.496062,1,1,13087,1635.875
1766253596.5000381,0,0,13091,1636.375
1766253596.5040379,0,0,13096,1637.000
1766253596.50804,0,0,13096,1637.000
1766253596.5120323,0,0,13094,1636.750
1766253596.516069,1,1,13088,1636.000
1766253596.5200393,0,0,13091,1636.375
1766253596.5240371,0,0,13097,1637.125
1766253596.5280402,0,0,13097,1637.125
1766253596.5320358,0,0,13095,1636.875
1766253596.5360608,1,1,13088,1636.000
1766253596.540034,0,0,13091,1636.375
1766253596.5440369,0,0,13096,1637.000
1766253596.5480485,0,0,13096,1637.000
1766253596.5520806,0,0,13094,1636.750
1766253596.5560696,1,1,13088,1636.000
1766253596.5600243,0,0,13091,1636.375
1766253596.5641196,0,0,13096,1637.000
1766253596.568035,0,0,13096,1637.000
1766253596.5720222,0,0,13094,1636.750
1766253596.5760612,1,1,13088,1636.000
1766253596.5800364,0,0,13091,1636.375
1766253596.5840342,0,0,13096,1637.000
1766253596.5880272,0,0,13096,1637.000
1766253596.5920198,0,0,13094,1636.750
1766253596.5960565,1,1,13089,1636.125
1766253596.6000347,0,0,13091,1636.375
1766253596.604031,0,0,13096,1637.000
1766253596.6080372,0,0,13096,1637.000
1766253596.612036,0,0,13094,1636.750
1766253596.6160712,1,1,13088,1636.000
1766253596.6200318,0,0,13089,1636.125
1766253596.624031,0,0,13095,1636.875
1766253596.6280377,0,0,13096,1637.000
1766253596.6320322,0,0,13094,1636.750
1766253596.6360593,1,1,13089,1636.125
1766253596.6400363,0,0,13090,1636.250
1766253596.6440418,0,0,13095,1636.875
1766253596.6480248,0,0,13095,1636.875
1766253596.65202,0,0,13094,1636.750
1766253596.6560566,1,1,13089,1636.125
1766253596.660034,0,0,13090,1636.250
1766253596.664032,0,0,13096,1637.000
1766253596.6680245,0,0,13096,1637.000
1766253596.6720135,0,0,13094,1636.750
1766253596.6760635,1,1,13089,1636.125
1766253596.680022,0,0,13090,1636.250
1766253596.684017,0,0,13096,1637.000
1766253596.6880348,0,0,13097,1637.125
1766253596.6920335,0,0,13095,1636.875
1766253596.696063,1,1,13090,1636.250
1766253596.7000346,0,0,13091,1636.375
1766253596.7040336,0,0,13096,1637.000
1766253596.7080371,0,0,13096,1637.000
1766253596.7120326,0,0,13095,1636.875
1766253596.7160637,1,1,13091,1636.375
1766253596.7200375,0,0,13090,1636.250
1766253596.724036,0,0,13096,1637.000
1766253596.7280352,0,0,13097,1637.125
1766253596.7320302,0,0,13096,1637.000
1766253596.7360594,1,1,13090,1636.250
1766253596.7400212,0,0,13090,1636.250
1766253596.7440283,0,0,13096,1637.000
1766253596.748035,0,0,13096,1637.000
1766253596.7520313,0,0,13094,1636.750
1766253596.7560568,1,1,13089,1636.125
1766253596.7600358,0,0,13087,1635.875
1766253596.769464,0,0,13096,1637.000
1766253596.7721403,0,0,13094,1636.750
1766253596.7760773,1,1,13089,1636.125
1766253596.7800171,0,0,13087,1635.875
1766253596.7840178,0,0,13094,1636.750
1766253596.7880366,0,0,13096,1637.000
1766253596.7920349,0,0,13094,1636.750
1766253596.7960587,1,1,13090,1636.250
1766253596.8000185,0,0,13088,1636.000
1766253596.8040178,0,0,13095,1636.875
1766253596.808032,0,0,13097,1637.125
1766253596.8120358,0,0,13095,1636.875
1766253596.8160646,1,1,13091,1636.375
1766253596.8200328,0,0,13089,1636.125
1766253596.82403,0,0,13095,1636.875
1766253596.8280373,0,0,13096,1637.000
1766253596.8320317,0,0,13095,1636.875
1766253596.8360598,1,1,13090,1636.250
1766253596.840031,0,0,13087,1635.875
1766253596.8440316,0,0,13095,1636.875
1766253596.8480363,0,0,13096,1637.000
1766253596.852032,0,0,13094,1636.750
1766253596.856059,1,1,13091,1636.375
1766253596.860031,0,0,13088,1636.000
1766253596.8640285,0,0,13095,1636.875
1766253596.8680358,0,0,13097,1637.125
1766253596.8720315,0,0,13095,1636.875
1766253596.8760617,1,1,13091,1636.375
1766253596.8800354,0,0,13088,1636.000
1766253596.884028,0,0,13095,1636.875
1766253596.8880322,0,0,13097,1637.125
1766253596.8920307,0,0,13095,1636.875
1766253596.8960571,1,1,13091,1636.375
1766253596.9000165,0,0,13087,1635.875
1766253596.904013,0,0,13095,1636.875
1766253596.9080315,0,0,13096,1637.000
1766253596.9120312,0,0,13094,1636.750
1766253596.9160604,1,1,13091,1636.375
1766253596.9200325,0,0,13086,1635.750
1766253596.9240296,0,0,13094,1636.750
1766253596.9280307,0,0,13096,1637.000
1766253596.9320278,0,0,13095,1636.875
1766253596.9360564,1,1,13092,1636.500
1766253596.9400315,0,0,13087,1635.875
1766253596.944027,0,0,13094,1636.750
1766253596.9480195,0,0,13096,1637.000
1766253596.9522693,0,0,13095,1636.875
1766253596.9560685,1,1,13090,1636.250
1766253596.960021,0,0,13086,1635.750
1766253596.9640176,0,0,13093,1636.625
1766253596.9681146,0,0,13095,1636.875
1766253596.9720273,0,0,13092,1636.500
1766253596.9760633,1,1,13091,1636.375
1766253596.980032,0,0,13086,1635.750
1766253596.984031,0,0,13093,1636.625
1766253596.9880238,0,0,13096,1637.000
1766253596.9920115,0,0,13095,1636.875
1766253596.9960575,1,1,13092,1636.500
1766253597.0000362,0,0,13086,1635.750
1766253597.0040329,0,0,13093,1636.625
1766253597.0080361,0,0,13096,1637.000
1766253597.0120285,0,0,13096,1637.000
1766253597.016064,1,1,13092,1636.500
1766253597.020033,0,0,13086,1635.750
1766253597.0240333,0,0,13094,1636.750
1766253597.0280368,0,0,13096,1637.000
1766253597.0320268,0,0,13095,1636.875
1766253597.0360622,1,1,13092,1636.500
1766253597.0400488,0,0,13086,1635.750
1766253597.0442936,0,0,13095,1636.875
1766253597.0480282,0,0,13095,1636.875
1766253597.0520122,0,0,13094,1636.750
1766253597.0560465,1,1,13091,1636.375
1766253597.0600297,0,0,13086,1635.750
1766253597.0640297,0,0,13096,1637.000
1766253597.068021,0,0,13094,1636.750
1766253597.0720134,0,0,13092,1636.500
1766253597.076046,1,1,13086,1635.750
1766253597.080032,0,0,13093,1636.625
1766253597.084027,0,0,13096,1637.000
1766253597.0880327,0,0,13095,1636.875
1766253597.0920293,0,0,13092,1636.500
1766253597.0960536,1,1,13086,1635.750
1766253597.1000257,0,0,13092,1636.500
1766253597.1040246,0,0,13096,1637.000
1766253597.1080203,0,0,13095,1636.875
1766253597.112011,0,0,13093,1636.625
1766253597.1160467,1,1,13086,1635.750
1766253597.1200666,0,0,13091,1636.375
1766253597.1240425,0,0,13094,1636.750
1766253597.1280465,0,0,13093,1636.625
1766253597.1320515,0,0,13091,1636.375
1766253597.1360717,1,1,13085,1635.625
1766253597.140028,0,0,13092,1636.500
1766253597.1440258,0,0,13096,1637.000
1766253597.1480193,0,0,13095,1636.875
1766253597.1520138,0,0,13093,1636.625
1766253597.1560411,1,1,13086,1635.750
1766253597.1600296,0,0,13091,1636.375
1766253597.1640275,0,0,13095,1636.875
1766253597.1682503,0,0,13094,1636.750
1766253597.1720407,0,0,13092,1636.500
1766253597.1760654,1,1,13086,1635.750
1766253597.1800144,0,0,13091,1636.375
1766253597.1840086,0,0,13095,1636.875
1766253597.1880262,0,0,13094,1636.750
1766253597.1920264,0,0,13093,1636.625
1766253597.1960516,1,1,13087,1635.875
1766253597.200012,0,0,13092,1636.500
1766253597.204006,0,0,13095,1636.875
1766253597.20803,0,0,13095,1636.875
1766253597.2120268,0,0,13092,1636.500
1766253597.2160575,1,1,13086,1635.750
1766253597.2200284,0,0,13091,1636.375
1766253597.224026,0,0,13096,1637.000
1766253597.2280273,0,0,13095,1636.875
1766253597.232025,0,0,13093,1636.625
1766253597.2360556,1,1,13086,1635.750
1766253597.2400303,0,0,13091,1636.375
1766253597.2440689,0,0,13096,1637.000
1766253597.2480464,0,0,13095,1636.875
1766253597.2520125,0,0,13093,1636.625
1766253597.2560494,1,1,13086,1635.750
1766253597.2600133,0,0,13090,1636.250
1766253597.2640104,0,0,13094,1636.750
1766253597.268025,0,0,13094,1636.750
1766253597.2720244,0,0,13092,1636.500
1766253597.2760518,1,1,13086,1635.750
1766253597.280014,0,0,13089,1636.125
1766253597.2840133,0,0,13095,1636.875
1766253597.2880282,0,0,13095,1636.875
1766253597.2920249,0,0,13093,1636.625
1766253597.2960505,1,1,13086,1635.750
1766253597.3000286,0,0,13089,1636.125
1766253597.304026,0,0,13095,1636.875
1766253597.3080275,0,0,13094,1636.750
1766253597.3120213,0,0,13093,1636.625
1766253597.3160558,1,1,13086,1635.750
1766253597.320026,0,0,13089,1636.125
1766253597.3240256,0,0,13094,1636.750
1766253597.3280158,0,0,13095,1636.875
1766253597.3320103,0,0,13092,1636.500
1766253597.336045,1,1,13087,1635.875
1766253597.3403614,0,0,13089,1636.125
1766253597.3441958,0,0,13095,1636.875
1766253597.3480628,0,0,13095,1636.875
1766253597.3520286,0,0,13094,1636.750
1766253597.3560674,1,1,13087,1635.875
1766253597.3600166,0,0,13090,1636.250
1766253597.3640096,0,0,13096,1637.000
1766253597.3682399,0,0,13095,1636.875
1766253597.3720403,0,0,13093,1636.625
1766253597.376053,1,1,13087,1635.875
1766253597.3800151,0,0,13089,1636.125
1766253597.3840058,0,0,13096,1637.000
1766253597.3880231,0,0,13096,1637.000
1766253597.3920245,0,0,13095,1636.875
1766253597.396054,1,1,13088,1636.000
1766253597.400012,0,0,13089,1636.125
1766253597.4040062,0,0,13095,1636.875
1766253597.408031,0,0,13097,1637.125
1766253597.412027,0,0,13094,1636.750
1766253597.416059,1,1,13088,1636.000
1766253597.420027,0,0,13089,1636.125
1766253597.4240227,0,0,13095,1636.875
1766253597.4280157,0,0,13096,1637.000
1766253597.4320085,0,0,13094,1636.750
1766253597.4360404,1,1,13089,1636.125
1766253597.4400313,0,0,13089,1636.125
1766253597.444022,0,0,13096,1637.000
1766253597.4480257,0,0,13097,1637.125
1766253597.452026,0,0,13095,1636.875
1766253597.4560525,1,1,13089,1636.125
1766253597.460028,0,0,13089,1636.125
1766253597.4640212,0,0,13096,1637.000
1766253597.468027,0,0,13096,1637.000
1766253597.472021,0,0,13095,1636.875
1766253597.4760509,1,1,13089,1636.125
1766253597.4800255,0,0,13088,1636.000
1766253597.4840264,0,0,13096,1637.000
1766253597.488024,0,0,13097,1637.125
1766253597.4920216,0,0,13095,1636.875
1766253597.4960485,1,1,13089,1636.125
1766253597.5000267,0,0,13088,1636.000
1766253597.5040245,0,0,13095,1636.875
1766253597.508014,0,0,13096,1637.000
1766253597.5120075,0,0,13094,1636.750
1766253597.5161161,1,1,13089,1636.125
1766253597.520033,0,0,13088,1636.000
1766253597.5240233,0,0,13094,1636.750
1766253597.528023,0,0,13095,1636.875
1766253597.5320194,0,0,13094,1636.750
1766253597.536053,1,1,13089,1636.125
1766253597.5400212,0,0,13088,1636.000
1766253597.5440226,0,0,13096,1637.000
1766253597.54803,0,0,13096,1637.000
1766253597.5520203,0,0,13095,1636.875
1766253597.556044,1,1,13090,1636.250
1766253597.5600243,0,0,13087,1635.875
1766253597.5640235,0,0,13094,1636.750
1766253597.5682333,0,0,13095,1636.875
1766253597.5720394,0,0,13093,1636.625
1766253597.5760577,1,1,13087,1635.875
1766253597.5800095,0,0,13085,1635.625
1766253597.5840058,0,0,13093,1636.625
1766253597.5880241,0,0,13095,1636.875
1766253597.5920203,0,0,13094,1636.750
1766253597.596047,1,1,13089,1636.125
1766253597.600005,0,0,13086,1635.750
1766253597.604004,0,0,13093,1636.625
1766253597.6080205,0,0,13096,1637.000
1766253597.612011,0,0,13094,1636.750
1766253597.6160452,1,1,13089,1636.125
1766253597.6200206,0,0,13086,1635.750
1766253597.6240215,0,0,13094,1636.750
1766253597.6280155,0,0,13096,1637.000
1766253597.6320055,0,0,13095,1636.875
1766253597.6360474,1,1,13090,1636.250
1766253597.6400218,0,0,13086,1635.750
1766253597.64402,0,0,13093,1636.625
1766253597.648014,0,0,13096,1637.000
1766253597.652007,0,0,13095,1636.875
1766253597.6560395,1,1,13092,1636.500
1766253597.6600215,0,0,13085,1635.625
1766253597.6640193,0,0,13092,1636.500
1766253597.6680255,0,0,13096,1637.000
1766253597.6720207,0,0,13094,1636.750
1766253597.676048,1,1,13086,1635.750
1766253597.6800208,0,0,13094,1636.750
1766253597.684019,0,0,13096,1637.000
1766253597.6880226,0,0,13094,1636.750
1766253597.6920197,0,1,13091,1636.375
1766253597.6960475,1,1,13085,1635.625
1766253597.7000115,0,0,13093,1636.625
1766253597.7040029,0,0,13095,1636.875
1766253597.7080214,0,0,13094,1636.750
1766253597.7120209,1,1,13090,1636.250
1766253597.7160532,1,1,13085,1635.625
1766253597.7200243,0,0,13093,1636.625
1766253597.724018,0,0,13095,1636.875
1766253597.7280207,0,0,13094,1636.750
1766253597.7320213,1,1,13090,1636.250
1766253597.7360475,1,1,13085,1635.625
1766253597.7400212,0,0,13093,1636.625
1766253597.7440166,0,0,13096,1637.000
1766253597.7480218,0,0,13094,1636.750
1766253597.7520175,1,1,13091,1636.375
1766253597.7560444,1,1,13085,1635.625
1766253597.760008,0,0,13093,1636.625
1766253597.764006,0,0,13096,1637.000
1766253597.7735171,1,1,13092,1636.500
1766253597.7761686,0,0,13084,1635.500
1766253597.780015,0,0,13090,1636.250
1766253597.7840066,0,0,13094,1636.750
1766253597.7880185,0,0,13094,1636.750
1766253597.7920196,1,1,13091,1636.375
1766253597.796049,1,1,13085,1635.625
1766253597.8000076,0,0,13092,1636.500
1766253597.8040066,0,0,13096,1637.000
1766253597.8080251,0,0,13094,1636.750
1766253597.8120172,1,1,13091,1636.375
1766253597.8160486,1,1,13085,1635.625
1766253597.8200223,0,0,13092,1636.500
1766253597.8240175,0,0,13096,1637.000
1766253597.8280227,0,0,13094,1636.750
1766253597.832015,1,1,13092,1636.500
1766253597.8360434,1,0,13085,1635.625
1766253597.8400216,0,0,13092,1636.500
1766253597.8440168,0,0,13096,1637.000
1766253597.8480213,0,0,13095,1636.875
1766253597.8520162,1,1,13091,1636.375
1766253597.8560479,0,0,13085,1635.625
1766253597.8600163,0,0,13093,1636.625
1766253597.864018,0,0,13096,1637.000
1766253597.8680232,0,0,13094,1636.750
1766253597.8720176,1,1,13092,1636.500
1766253597.8760417,1,0,13085,1635.625
1766253597.880019,0,0,13091,1636.375
1766253597.8840177,0,0,13096,1637.000
1766253597.888021,0,0,13094,1636.750
1766253597.8920155,1,1,13092,1636.500
1766253597.896043,0,0,13085,1635.625
1766253597.9,0,0,13092,1636.500
1766253597.9039986,0,0,13095,1636.875
1766253597.9080179,0,0,13095,1636.875
1766253597.9120166,1,1,13093,1636.625
1766253597.9160519,0,0,13085,1635.625
1766253597.920017,0,0,13091,1636.375
1766253597.9240136,0,0,13095,1636.875
1766253597.9280207,0,0,13095,1636.875
1766253597.932017,1,1,13091,1636.375
1766253597.936042,0,0,13084,1635.500
1766253597.9400146,0,0,13091,1636.375
1766253597.944012,0,0,13095,1636.875
1766253597.9480221,0,0,13094,1636.750
1766253597.9520147,1,1,13092,1636.500
1766253597.9560416,0,0,13085,1635.625
1766253597.960018,0,0,13090,1636.250
1766253597.9640167,0,0,13095,1636.875
1766253597.968021,0,0,13095,1636.875
1766253597.972247,1,1,13092,1636.500
1766253597.9760752,0,0,13084,1635.500
1766253597.9800076,0,0,13089,1636.125
1766253597.9839985,0,0,13095,1636.875
1766253597.9880183,0,0,13094,1636.750
1766253597.9920177,1,1,13093,1636.625
1766253597.9960425,0,0,13085,1635.625
1766253598.0000055,0,0,13090,1636.250
1766253598.0039964,0,0,13095,1636.875
1766253598.0080173,0,0,13095,1636.875
1766253598.0120163,1,1,13093,1636.625
1766253598.0160549,0,0,13086,1635.750
1766253598.0200198,0,0,13090,1636.250
1766253598.0240173,0,0,13095,1636.875
1766253598.0280213,0,0,13095,1636.875
1766253598.0320148,1,1,13093,1636.625
1766253598.036045,0,0,13086,1635.750
1766253598.0400205,0,0,13090,1636.250
1766253598.044019,0,0,13096,1637.000
1766253598.0480204,0,0,13096,1637.000
1766253598.0520144,1,1,13093,1636.625
1766253598.0560446,0,0,13086,1635.750
1766253598.0600193,0,0,13090,1636.250
1766253598.0640168,0,0,13095,1636.875
1766253598.068017,0,0,13095,1636.875
1766253598.0720239,1,1,13092,1636.500
1766253598.076049,0,0,13087,1635.875
1766253598.080004,0,0,13089,1636.125
1766253598.0840006,0,0,13096,1637.000
1766253598.0880175,0,0,13096,1637.000
1766253598.0920136,1,1,13094,1636.750
1766253598.0960426,0,0,13087,1635.875
1766253598.1000018,0,0,13090,1636.250
1766253598.1040018,0,0,13095,1636.875
1766253598.1080155,0,0,13096,1637.000
1766253598.1120129,1,1,13093,1636.625
1766253598.1160467,0,0,13087,1635.875
1766253598.1200154,0,0,13089,1636.125
1766253598.1240141,0,0,13095,1636.875
1766253598.1280198,0,0,13096,1637.000
1766253598.1320162,1,1,13095,1636.875
1766253598.1360402,0,0,13088,1636.000
1766253598.1400125,0,0,13089,1636.125
1766253598.1440136,0,0,13096,1637.000
1766253598.148009,0,0,13096,1637.000
1766253598.1519985,1,1,13093,1636.625
1766253598.156027,0,0,13088,1636.000
1766253598.1600149,0,0,13089,1636.125
1766253598.164014,0,0,13095,1636.875
1766253598.1680183,0,0,13095,1636.875
1766253598.1722183,1,1,13094,1636.750
1766253598.1760676,0,0,13087,1635.875
1766253598.1800005,0,0,13086,1635.750
1766253598.1839952,0,0,13095,1636.875
1766253598.1880147,0,0,13097,1637.125
1766253598.1920152,1,1,13094,1636.750
1766253598.1960437,0,0,13089,1636.125
1766253598.1999984,0,0,13089,1636.125
1766253598.2039936,0,0,13095,1636.875
1766253598.208016,0,0,13096,1637.000
1766253598.212015,1,1,13093,1636.625
1766253598.2160478,0,0,13088,1636.000
1766253598.2200177,0,0,13087,1635.875
1766253598.2240136,0,0,13095,1636.875
1766253598.228016,0,0,13096,1637.000
1766253598.232015,1,1,13094,1636.750
1766253598.236044,0,0,13088,1636.000
1766253598.2400184,0,0,13088,1636.000
1766253598.2440128,0,0,13096,1637.000
1766253598.2480166,0,0,13096,1637.000
1766253598.2520163,1,1,13094,1636.750
1766253598.2560418,0,0,13089,1636.125
1766253598.260014,0,0,13087,1635.875
1766253598.2640104,0,0,13095,1636.875
1766253598.2680054,0,0,13097,1637.125
1766253598.2720003,1,1,13094,1636.750
1766253598.2760825,0,0,13089,1636.125
1766253598.2800052,0,0,13086,1635.750
1766253598.283998,0,0,13095,1636.875
1766253598.2880132,0,0,13095,1636.875
1766253598.2920136,1,1,13089,1636.125
1766253598.2960432,0,0,13087,1635.875
1766253598.3000023,0,0,13095,1636.875
1766253598.3039978,0,0,13096,1637.000
1766253598.3080108,0,0,13094,1636.750
1766253598.312011,1,1,13090,1636.250
1766253598.3160472,0,0,13087,1635.875
1766253598.3200152,0,0,13095,1636.875
1766253598.3240144,0,0,13097,1637.125
1766253598.3280134,0,0,13095,1636.875
1766253598.3320103,1,1,13091,1636.375
1766253598.3360376,0,0,13087,1635.875
1766253598.3403363,0,0,13095,1636.875
1766253598.3441882,0,0,13096,1637.000
1766253598.3480613,0,0,13095,1636.875
1766253598.3520186,1,1,13090,1636.250
1766253598.3560395,0,0,13086,1635.750
1766253598.3600059,0,0,13095,1636.875
1766253598.3639991,0,0,13097,1637.125
1766253598.3680112,0,0,13094,1636.750
1766253598.3722196,1,1,13090,1636.250
1766253598.376057,0,0,13086,1635.750
1766253598.3800042,0,0,13094,1636.750
1766253598.3839984,0,0,13097,1637.125
1766253598.388012,0,0,13096,1637.000
1766253598.392012,1,1,13092,1636.500
1766253598.396039,0,0,13087,1635.875
1766253598.3999994,0,0,13095,1636.875
1766253598.403995,0,0,13097,1637.125
1766253598.4080186,0,0,13095,1636.875
1766253598.4120164,1,1,13091,1636.375
1766253598.4160476,0,0,13086,1635.750
1766253598.420013,0,0,13094,1636.750
1766253598.4240155,0,0,13096,1637.000
1766253598.4280205,0,0,13095,1636.875
1766253598.4320102,1,1,13092,1636.500
1766253598.4360397,0,0,13086,1635.750
1766253598.4400141,0,0,13095,1636.875
1766253598.4440112,0,0,13097,1637.125
1766253598.4480166,0,0,13095,1636.875
1766253598.4520128,1,1,13091,1636.375
1766253598.4560404,0,0,13085,1635.625
1766253598.460011,0,0,13093,1636.625
1766253598.4640114,0,0,13096,1637.000
1766253598.4680047,0,0,13095,1636.875
1766253598.4719956,1,1,13091,1636.375
1766253598.476029,0,0,13086,1635.750
1766253598.4800146,0,0,13094,1636.750
1766253598.4840093,0,0,13097,1637.125
1766253598.4880152,0,0,13095,1636.875
1766253598.4920113,1,1,13092,1636.500
1766253598.4960399,0,0,13087,1635.875
1766253598.5000098,0,0,13093,1636.625
1766253598.504009,0,0,13096,1637.000
1766253598.508013,0,0,13096,1637.000
1766253598.5120113,1,1,13092,1636.500
1766253598.516046,0,0,13086,1635.750
1766253598.5200155,0,0,13093,1636.625
1766253598.5240083,0,0,13095,1636.875
1766253598.5280135,0,0,13095,1636.875
1766253598.5320127,1,1,13092,1636.500
1766253598.5360446,0,0,13086,1635.750
1766253598.540013,0,0,13093,1636.625
1766253598.544012,0,0,13097,1637.125
1766253598.5480118,0,0,13095,1636.875
1766253598.5520086,1,1,13093,1636.625
1766253598.5560374,0,0,13086,1635.750
1766253598.5600157,0,0,13093,1636.625
1766253598.5640109,0,0,13097,1637.125
1766253598.5680096,0,0,13096,1637.000
1766253598.572229,1,1,13093,1636.625
1766253598.5760677,0,0,13087,1635.875
1766253598.5799987,0,0,13092,1636.500
1766253598.5839944,0,0,13096,1637.000
1766253598.5880082,0,0,13095,1636.875
1766253598.5920076,1,1,13092,1636.500
1766253598.596035,0,0,13085,1635.625
1766253598.599994,0,0,13093,1636.625
1766253598.6039937,0,0,13097,1637.125
1766253598.6080084,0,0,13096,1637.000
1766253598.6120052,1,1,13093,1636.625
1766253598.6160395,0,0,13087,1635.875
1766253598.6200118,0,0,13093,1636.625
1766253598.6240077,0,0,13097,1637.125
1766253598.62801,0,0,13096,1637.000
1766253598.6320055,1,1,13093,1636.625
1766253598.6360354,0,0,13086,1635.750
1766253598.6400082,0,0,13093,1636.625
1766253598.6440063,0,0,13096,1637.000
1766253598.6480007,0,0,13096,1637.000
1766253598.65199,1,1,13094,1636.750
1766253598.656024,0,0,13086,1635.750
1766253598.6600063,0,0,13092,1636.500
1766253598.664006,0,0,13096,1637.000
1766253598.6680129,0,0,13097,1637.125
1766253598.6720054,1,1,13094,1636.750
1766253598.6760304,0,0,13087,1635.875
1766253598.6800077,0,0,13093,1636.625
1766253598.6840093,0,0,13097,1637.125
1766253598.6880128,0,0,13096,1637.000
1766253598.6920056,1,1,13094,1636.750
1766253598.6960335,0,0,13086,1635.750
1766253598.7000086,0,0,13092,1636.500
1766253598.7040045,0,0,13096,1637.000
1766253598.708011,0,0,13096,1637.000
1766253598.7120063,1,1,13094,1636.750
1766253598.7160373,0,0,13087,1635.875
1766253598.7200074,0,0,13092,1636.500
1766253598.7239869,0,0,13096,1637.000
1766253598.7280064,0,0,13096,1637.000
1766253598.7320092,1,1,13093,1636.625
1766253598.736033,0,0,13086,1635.750
1766253598.7400043,0,0,13091,1636.375
1766253598.7440035,0,0,13096,1637.000
1766253598.7480102,0,0,13095,1636.875
1766253598.752006,1,1,13093,1636.625
1766253598.7560318,0,0,13086,1635.750
1766253598.759989,0,0,13091,1636.375
1766253598.7639887,0,0,13096,1637.000
1766253598.7680073,0,0,13096,1637.000
1766253598.7774134,0,0,13090,1636.250
1766253598.7800126,0,0,13090,1636.250
1766253598.7839906,0,0,13094,1636.750
1766253598.788012,0,0,13095,1636.875
1766253598.7920213,1,1,13093,1636.625
1766253598.7960382,0,0,13087,1635.875
1766253598.7999923,0,0,13090,1636.250
1766253598.8039882,0,0,13096,1637.000
1766253598.808008,0,0,13096,1637.000
1766253598.8120067,1,1,13094,1636.750
1766253598.8160436,0,0,13087,1635.875
1766253598.8200102,0,0,13090,1636.250
1766253598.8240047,0,0,13096,1637.000
1766253598.8280072,0,0,13096,1637.000
1766253598.832004,1,1,13094,1636.750
1766253598.8360317,0,0,13088,1636.000
1766253598.840009,0,0,13090,1636.250
1766253598.8440065,0,0,13095,1636.875
1766253598.8480082,0,0,13096,1637.000
1766253598.852006,1,1,13094,1636.750
1766253598.8560383,0,0,13088,1636.000
1766253598.8600092,0,0,13090,1636.250
1766253598.8640068,0,0,13095,1636.875
1766253598.8680098,0,0,13096,1637.000
1766253598.8720045,1,1,13095,1636.875
1766253598.876033,0,0,13088,1636.000
1766253598.8800116,0,0,13090,1636.250
1766253598.8840086,0,0,13096,1637.000
1766253598.888011,0,0,13096,1637.000
1766253598.8920026,1,1,13094,1636.750
1766253598.8960323,0,0,13090,1636.250
1766253598.8999925,0,0,13096,1637.000
1766253598.9039905,0,0,13096,1637.000
1766253598.9080346,0,0,13094,1636.750
1766253598.9120102,1,1,13089,1636.125
1766253598.916042,0,0,13089,1636.125
1766253598.9199893,0,0,13096,1637.000
1766253598.9239922,0,0,13095,1636.875
1766253598.928007,0,0,13095,1636.875
1766253598.932002,1,1,13089,1636.125
1766253598.9360309,0,0,13089,1636.125
1766253598.939989,0,0,13095,1636.875
1766253598.9439898,0,0,13096,1637.000
1766253598.948005,0,0,13095,1636.875
1766253598.9520044,1,1,13089,1636.125
1766253598.956031,0,0,13088,1636.000
1766253598.9600048,0,0,13094,1636.750
1766253598.964004,0,0,13096,1637.000
1766253598.9680073,0,0,13094,1636.750
1766253598.9720047,1,1,13088,1636.000
1766253598.9761395,0,0,13088,1636.000
1766253598.9800048,0,0,13096,1637.000
1766253598.9839876,0,0,13096,1637.000
1766253598.988009,0,0,13094,1636.750
1766253598.9920056,1,1,13090,1636.250
1766253598.9960327,0,0,13088,1636.000
1766253598.9999883,0,0,13095,1636.875
1766253599.0039885,0,0,13096,1637.000
1766253599.0080097,0,0,13095,1636.875
1766253599.012007,1,1,13089,1636.125
1766253599.0160415,0,0,13088,1636.000
1766253599.0200047,0,0,13095,1636.875
1766253599.0240054,0,0,13097,1637.125
1766253599.027997,0,0,13095,1636.875
1766253599.0319915,1,1,13090,1636.250
1766253599.036028,0,0,13088,1636.000
1766253599.0400124,0,0,13096,1637.000
1766253599.0440054,0,0,13097,1637.125
1766253599.0480108,0,0,13095,1636.875
1766253599.052004,1,1,13091,1636.375
1766253599.056035,0,0,13088,1636.000
1766253599.0600066,0,0,13095,1636.875
1766253599.0640016,0,0,13097,1637.125
1766253599.068007,0,0,13095,1636.875
1766253599.0720046,1,1,13090,1636.250
1766253599.0760663,0,0,13088,1636.000
1766253599.080008,0,0,13095,1636.875
1766253599.0840032,0,0,13097,1637.125
1766253599.0880067,0,0,13095,1636.875
1766253599.0919995,1,1,13091,1636.375
1766253599.0960348,0,0,13087,1635.875
1766253599.1000068,0,0,13094,1636.750
1766253599.1040056,0,0,13097,1637.125
1766253599.1080065,0,0,13095,1636.875
1766253599.111999,1,1,13091,1636.375
1766253599.1160386,0,0,13087,1635.875
1766253599.1200068,0,0,13095,1636.875
1766253599.1240036,0,0,13096,1637.000
1766253599.1280036,0,0,13095,1636.875
1766253599.1320016,1,1,13091,1636.375
1766253599.1360347,0,0,13087,1635.875
1766253599.1400046,0,0,13095,1636.875
1766253599.1440027,0,0,13096,1637.000
1766253599.1479967,0,0,13095,1636.875
1766253599.151985,1,1,13092,1636.500
1766253599.1560197,0,0,13086,1635.750
