Timestamp,LO_plus,LO_minus,Raw_ADC,Voltage_mV
1764839601.009548,1,1,1756,219.500
1764839601.0114005,1,1,1756,219.500
1764839601.013104,0,0,974,121.750
1764839601.0156941,0,0,498,62.250
1764839601.0197175,0,0,1101,137.625
1764839601.0237002,0,0,1282,160.250
1764839601.027692,0,0,1047,130.875
1764839601.0317466,0,1,899,112.375
1764839601.0357006,0,0,672,84.000
1764839601.039695,0,0,1174,146.750
1764839601.0436964,0,0,1237,154.625
1764839601.047702,0,0,942,117.750
1764839601.0516994,1,1,802,100.250
1764839601.0556905,0,0,494,61.750
1764839601.0596943,0,0,894,111.750
1764839601.0636954,0,0,1016,127.000
1764839601.0676908,0,0,816,102.000
1764839601.0717545,1,0,755,94.375
1764839601.075699,0,0,670,83.750
1764839601.0796921,0,0,1569,196.125
1764839601.083698,0,0,1697,212.125
1764839601.0876925,0,0,1141,142.625
1764839601.0916905,1,1,783,97.875
1764839601.0956895,0,0,466,58.250
1764839601.0996923,0,0,1046,130.750
1764839601.1036913,0,0,1226,153.250
1764839601.1076915,0,0,886,110.750
1764839601.1116974,1,0,705,88.125
1764839601.1156907,0,0,697,87.125
1764839601.1196916,0,0,1818,227.250
1764839601.1237051,0,0,1980,247.500
1764839601.127702,0,0,1239,154.875
1764839601.1316986,1,1,718,89.750
1764839601.1356905,0,0,357,44.625
1764839601.1397033,0,0,1158,144.750
1764839601.143766,0,0,1445,180.625
1764839601.1477156,0,0,974,121.750
1764839601.1517043,1,1,652,81.500
1764839601.155693,0,0,709,88.625
1764839601.159693,0,0,2199,274.875
1764839601.1637049,0,0,2443,305.375
1764839601.1677127,0,0,1452,181.500
1764839601.1717083,0,0,693,86.625
1764839601.1756914,0,0,244,30.500
1764839601.1797168,0,0,979,122.375
1764839601.1837227,0,0,1322,165.250
1764839601.1876936,0,0,864,108.000
1764839601.1916966,1,1,551,68.875
1764839601.195698,0,0,265,33.125
1764839601.1997104,0,0,842,105.250
1764839601.2037673,0,0,1128,141.000
1764839601.2077358,0,0,714,89.250
1764839601.211722,1,1,471,58.875
1764839601.2157006,0,0,469,58.625
1764839601.2196994,0,0,2039,254.875
1764839601.223723,0,0,2523,315.375
1764839601.2277226,0,0,1514,189.250
1764839601.2317073,1,0,648,81.000
1764839601.235693,0,0,178,22.250
1764839601.2396936,0,0,1015,126.875
1764839601.245456,0,0,1467,183.375
1764839601.2477412,0,0,901,112.625
1764839601.251695,1,1,449,56.125
1764839601.2556903,0,0,342,42.750
1764839601.2597246,0,0,1870,233.750
1764839601.263729,0,0,2459,307.375
1764839601.2676907,0,0,1463,182.875
1764839601.2716937,1,1,556,69.500
1764839601.2756906,0,0,286,35.750
1764839601.2796922,0,0,2093,261.625
1764839601.2836928,0,0,2856,357.000
1764839601.2876878,0,0,1706,213.250
1764839601.2916932,1,0,580,72.500
1764839601.2956882,0,0,172,21.500
1764839601.2996907,0,0,1790,223.750
1764839601.3036904,0,0,2576,322.000
1764839601.3076923,0,0,1544,193.000
1764839601.3117533,0,0,504,63.000
1764839601.3157325,0,0,141,17.625
1764839601.3197017,0,0,2165,270.625
1764839601.3236947,0,0,3173,396.625
1764839601.3276887,0,0,1920,240.000
1764839601.331699,1,0,573,71.625
1764839601.3356967,0,0,-81,-10.125
1764839601.3396962,0,0,1198,149.750
1764839601.3436935,0,0,2072,259.000
1764839601.3476896,0,0,1257,157.125
1764839601.351699,1,0,351,43.875
1764839601.3556974,0,0,-73,-9.125
1764839601.3596976,0,0,1246,155.750
1764839601.3636942,0,0,2137,267.125
1764839601.367689,0,0,1282,160.250
1764839601.3717368,0,1,327,40.875
1764839601.375726,0,0,-202,-25.250
1764839601.379702,0,0,495,61.875
1764839601.3836958,0,0,1194,149.250
1764839601.3876896,0,0,683,85.375
1764839601.3916981,0,0,109,13.625
1764839601.3956954,0,0,-196,-24.500
1764839601.3997471,0,0,799,99.875
1764839601.4037647,0,0,1723,215.375
1764839601.4076974,0,0,1077,134.625
1764839601.4116995,0,0,247,30.875
1764839601.4156988,0,0,-186,-23.250
1764839601.4197118,0,0,1119,139.875
1764839601.423693,0,0,2310,288.750
1764839601.427728,0,0,1507,188.375
1764839601.4317255,0,0,383,47.875
1764839601.435699,0,0,-228,-28.500
1764839601.4396942,0,0,1101,137.625
1764839601.4436982,0,0,2449,306.125
1764839601.4476962,0,0,1647,205.875
1764839601.4516966,0,0,415,51.875
1764839601.4556882,0,0,-293,-36.625
1764839601.4597585,0,0,853,106.625
1764839601.4637048,0,0,2214,276.750
1764839601.4676874,0,0,1524,190.500
1764839601.4716952,0,1,366,45.750
1764839601.4756992,0,0,-341,-42.625
1764839601.4796987,0,0,494,61.750
1764839601.483692,0,0,1686,210.750
1764839601.4876857,0,0,1145,143.125
1764839601.4917612,0,0,197,24.625
1764839601.4957104,0,0,-294,-36.750
1764839601.4996984,0,0,1011,126.375
1764839601.5036933,0,0,2459,307.375
1764839601.507723,0,0,1675,209.375
1764839601.511719,0,0,344,43.000
1764839601.51569,0,0,-460,-57.500
1764839601.5196881,0,0,84,10.500
1764839601.523698,0,0,1347,168.375
1764839601.527695,0,0,998,124.750
1764839601.5316951,0,0,142,17.750
1764839601.5356855,0,0,-388,-48.500
1764839601.5396872,0,0,439,54.875
1764839601.5436969,0,0,1935,241.875
1764839601.5476875,0,0,1445,180.625
1764839601.5516872,0,0,287,35.875
1764839601.5557451,0,0,-450,-56.250
1764839601.559772,0,0,-292,-36.500
1764839601.5638375,0,0,795,99.375
1764839601.5677838,0,0,640,80.000
1764839601.571771,0,0,-23,-2.875
1764839601.5757546,0,0,-388,-48.500
1764839601.5797591,0,0,255,31.875
1764839601.5837746,0,0,1528,191.000
1764839601.5877707,0,0,1128,141.000
1764839601.5917666,0,0,119,14.875
1764839601.5957556,0,0,-456,-57.000
1764839601.5997546,0,0,1676,209.500
1764839601.6038492,0,0,1366,170.750
1764839601.6077776,0,0,257,32.125
1764839601.6117702,0,1,-443,-55.375
1764839601.6157646,0,0,-125,-15.625
1764839601.6200294,0,0,1250,156.250
1764839601.6237788,0,0,1068,133.500
1764839601.6277611,0,0,131,16.375
1764839601.6317706,0,0,-455,-56.875
1764839601.6357687,0,0,-122,-15.250
1764839601.639784,0,0,1428,178.500
1764839601.6437628,0,0,1295,161.875
1764839601.6477575,0,0,250,31.250
1764839601.6517608,0,0,-439,-54.875
1764839601.6557684,0,0,-293,-36.625
1764839601.6597884,0,0,1170,146.250
1764839601.6637864,0,0,1144,143.000
1764839601.6677876,0,0,192,24.000
1764839601.6718795,0,0,-441,-55.125
1764839601.6758006,0,0,-424,-53.000
1764839601.6797855,0,0,829,103.625
1764839601.6837993,0,0,863,107.875
1764839601.6877973,0,0,61,7.625
1764839601.6917994,0,0,-460,-57.500
1764839601.6964116,0,0,-61,-7.625
1764839601.6998856,0,0,1862,232.750
1764839601.7037964,0,0,1829,228.625
1764839601.7077858,0,0,520,65.000
1764839601.7117968,1,0,-414,-51.750
1764839601.7158036,0,0,-369,-46.125
1764839601.719803,0,0,1276,159.500
1764839601.7237875,0,0,1378,172.250
1764839601.7278926,0,0,314,39.250
1764839601.7318285,0,0,-446,-55.750
1764839601.7357903,0,0,-361,-45.125
1764839601.739787,0,0,1349,168.625
1764839601.7438004,0,0,1492,186.500
1764839601.7477994,0,0,368,46.000
1764839601.7517934,0,0,-450,-56.250
1764839601.7557998,0,0,-572,-71.500
1764839601.7597866,0,0,951,118.875
1764839601.7637904,0,0,1216,152.000
1764839601.7677846,0,0,263,32.875
1764839601.7717955,0,0,-453,-56.625
1764839601.7758582,0,0,-658,-82.250
1764839601.7798047,0,0,572,71.500
1764839601.7837887,0,0,856,107.000
1764839601.7877831,0,0,71,8.875
1764839601.7917974,0,0,-489,-61.125
1764839601.7958002,0,0,-651,-81.375
1764839601.7998264,0,0,473,59.125
1764839601.8038847,0,0,748,93.500
1764839601.8078012,0,0,3,0.375
1764839601.8117921,0,0,-510,-63.750
1764839601.8157835,0,0,-372,-46.500
1764839601.8197858,0,0,1426,178.250
1764839601.8239017,0,0,1752,219.000
1764839601.8278682,0,0,542,67.750
1764839601.8318093,0,0,-407,-50.875
1764839601.835788,0,0,-665,-83.125
1764839601.8397858,0,0,958,119.750
1764839601.8438015,0,0,1471,183.875
1764839601.8478234,0,0,460,57.500
1764839601.8519144,0,0,-396,-49.500
1764839601.8557885,0,0,-691,-86.375
1764839601.8597846,0,0,747,93.375
1764839601.8637853,0,0,1276,159.500
1764839601.8679621,0,0,358,44.750
1764839601.8718367,0,0,-423,-52.875
1764839601.8757887,0,0,-788,-98.500
1764839601.8797855,0,0,518,64.750
1764839601.883803,0,0,1133,141.625
1764839601.8878016,0,0,316,39.500
1764839601.8918006,1,0,-412,-51.500
1764839601.8957837,0,0,-838,-104.750
1764839601.9001243,0,0,95,11.875
1764839601.9038262,0,0,669,83.625
1764839601.907791,0,0,58,7.250
1764839601.9118009,0,0,-477,-59.625
1764839601.9158034,0,0,-767,-95.875
1764839601.9198003,0,0,626,78.250
1764839601.9237864,0,0,1423,177.875
1764839601.9277837,0,0,556,69.500
1764839601.9317892,0,0,-322,-40.250
1764839601.9357848,0,0,-734,-91.750
1764839601.9397812,0,0,663,82.875
1764839601.943799,0,0,1445,180.625
1764839601.9477978,0,0,550,68.750
1764839601.9518034,1,1,-355,-44.375
1764839601.955798,0,0,-806,-100.750
1764839601.9598155,0,0,616,77.000
1764839601.9639173,0,0,1555,194.375
1764839601.967811,0,0,679,84.875
1764839601.9718008,0,0,-288,-36.000
1764839601.9757838,0,0,-825,-103.125
1764839601.9797857,0,0,80,10.000
1764839601.9837987,0,0,866,108.250
1764839601.987795,0,0,249,31.125
1764839601.9917953,1,1,-426,-53.250
1764839601.9957848,0,0,-740,-92.500
1764839601.9997838,0,0,783,97.875
1764839602.0093277,1,1,-233,-29.125
1764839602.0122504,0,0,-233,-29.125
1764839602.0158007,0,0,-815,-101.875
1764839602.0197885,0,0,635,79.375
1764839602.0237863,0,0,1867,233.375
1764839602.027798,0,0,989,123.625
1764839602.0317852,0,0,-171,-21.375
1764839602.0357835,0,0,-931,-116.375
1764839602.039844,0,0,-395,-49.375
1764839602.0438,0,0,564,70.500
1764839602.0477805,0,0,174,21.750
1764839602.0517879,0,0,-429,-53.625
1764839602.0557818,0,0,-922,-115.250
1764839602.0598385,0,0,-895,-111.875
1764839602.0637984,0,0,-259,-32.375
1764839602.0677838,0,0,-398,-49.750
1764839602.0717971,0,0,-634,-79.250
1764839602.0757976,0,0,-801,-100.125
1764839602.0797997,0,0,-67,-8.375
1764839602.083789,0,0,933,116.625
1764839602.0877817,0,0,429,53.625
1764839602.0917857,1,0,-340,-42.500
1764839602.095781,0,0,-775,-96.875
1764839602.0997822,0,0,335,41.875
1764839602.1038544,0,0,1661,207.625
1764839602.1078048,0,0,983,122.875
1764839602.1117957,0,0,-135,-16.875
1764839602.1157813,0,0,-815,-101.875
1764839602.119782,0,0,-324,-40.500
1764839602.1238003,0,0,818,102.250
1764839602.1277986,0,0,470,58.750
1764839602.1317985,0,0,-288,-36.000
1764839602.1357806,0,0,-760,-95.000
1764839602.1397793,0,0,-304,-38.000
1764839602.1437814,0,0,749,93.625
1764839602.147788,0,0,400,50.000
1764839602.1518514,0,0,-329,-41.125
1764839602.155813,0,0,-792,-99.000
1764839602.1597993,0,0,-427,-53.375
1764839602.163786,0,0,749,93.625
1764839602.1677818,0,0,487,60.875
1764839602.1717873,0,0,-257,-32.125
1764839602.1757815,0,0,-735,-91.875
1764839602.1798384,0,0,752,94.000
1764839602.183792,0,0,512,64.000
1764839602.1877806,0,0,-249,-31.125
1764839602.1917894,0,0,-743,-92.875
1764839602.195792,0,0,-865,-108.125
1764839602.19997,0,0,5,0.625
1764839602.2037857,0,0,-14,-1.750
1764839602.2078428,0,0,-442,-55.250
1764839602.211797,0,0,-688,-86.000
1764839602.2157815,0,0,-206,-25.750
1764839602.2198532,0,0,1180,147.500
1764839602.2238004,0,0,899,112.375
1764839602.227818,0,0,-76,-9.500
1764839602.2317827,0,0,-688,-86.000
1764839602.235782,0,0,-582,-72.750
1764839602.2398038,0,0,610,76.250
1764839602.246708,0,0,516,64.500
1764839602.2486136,1,1,-218,-27.250
1764839602.251987,0,0,-678,-84.750
1764839602.255788,0,0,-255,-31.875
1764839602.2597854,0,0,1558,194.750
1764839602.2637897,0,0,1417,177.125
1764839602.2677777,0,0,223,27.875
1764839602.2717822,0,0,-585,-73.125
1764839602.2757814,0,0,-681,-85.125
1764839602.2797813,0,0,397,49.625
1764839602.2837787,0,0,393,49.125
1764839602.287825,0,0,-273,-34.125
1764839602.291826,0,0,-641,-80.125
1764839602.2957819,0,0,-133,-16.625
1764839602.2997844,0,0,1571,196.375
1764839602.3037817,0,0,1401,175.125
1764839602.3077853,0,0,177,22.125
1764839602.3117807,0,0,-638,-79.750
1764839602.315778,0,0,-1101,-137.625
1764839602.3197806,0,0,-362,-45.250
1764839602.3237853,0,0,-150,-18.750
1764839602.3277788,0,0,-491,-61.375
1764839602.3317924,0,0,-666,-83.250
1764839602.3357906,0,0,-735,-91.875
1764839602.3398452,0,0,389,48.625
1764839602.343855,0,0,534,66.750
1764839602.3478067,0,0,-161,-20.125
1764839602.3517933,0,0,-606,-75.750
1764839602.3557782,0,0,-869,-108.625
1764839602.3597817,0,0,25,3.125
1764839602.3637989,0,0,226,28.250
1764839602.3678472,0,0,-302,-37.750
1764839602.3718252,0,0,-612,-76.500
1764839602.3757799,0,0,-553,-69.125
1764839602.3797786,0,0,853,106.625
1764839602.3837967,0,0,1009,126.125
1764839602.387796,0,0,87,10.875
1764839602.3917918,1,0,-545,-68.125
1764839602.3957767,0,0,-898,-112.250
1764839602.3998578,0,0,-54,-6.750
1764839602.403797,0,0,233,29.125
1764839602.4078462,0,0,-274,-34.250
1764839602.4117947,0,0,-578,-72.250
1764839602.4157813,0,0,-593,-74.125
1764839602.4198115,0,0,755,94.375
1764839602.423791,0,0,1045,130.625
1764839602.4278572,0,0,153,19.125
1764839602.431824,0,0,-499,-62.375
1764839602.435781,0,0,-940,-117.500
1764839602.43978,0,0,-83,-10.375
1764839602.4437947,0,0,335,41.875
1764839602.4477935,0,0,-170,-21.250
1764839602.4517944,0,0,-524,-65.500
1764839602.455778,0,0,-796,-99.500
1764839602.4597821,0,0,178,22.250
1764839602.46378,0,0,609,76.125
1764839602.4677744,0,0,-17,-2.125
1764839602.4717891,0,0,-483,-60.375
1764839602.4757934,0,0,-510,-63.750
1764839602.479794,0,0,1206,150.750
1764839602.4837885,0,0,1724,215.500
1764839602.487789,0,0,601,75.125
1764839602.4917986,0,0,-350,-43.750
1764839602.4957917,0,0,-809,-101.125
1764839602.5000536,0,0,508,63.500
1764839602.5037901,0,0,1159,144.875
1764839602.5077767,0,0,348,43.500
1764839602.511789,0,0,-382,-47.750
1764839602.5157928,0,0,-745,-93.125
1764839602.5197947,0,0,592,74.000
1764839602.52378,0,0,1236,154.500
1764839602.5277722,0,0,385,48.125
1764839602.5317922,0,0,-388,-48.500
1764839602.535794,0,0,-792,-99.000
1764839602.5397952,0,0,449,56.125
1764839602.543799,0,0,1155,144.375
1764839602.5477903,0,0,365,45.625
1764839602.5517895,0,0,-382,-47.750
1764839602.5557764,0,0,-762,-95.250
1764839602.5597773,0,0,455,56.875
1764839602.5637937,0,0,1181,147.625
1764839602.5677931,0,0,388,48.500
1764839602.571795,0,0,-384,-48.000
1764839602.575791,0,0,-916,-114.500
1764839602.5797937,0,0,-304,-38.000
1764839602.5837955,0,0,368,46.000
1764839602.5877912,0,0,-63,-7.875
1764839602.5917938,0,0,-488,-61.000
1764839602.5957904,0,0,-858,-107.250
1764839602.5997884,0,0,-270,-33.750
1764839602.6037917,0,0,399,49.875
1764839602.6079776,0,0,-39,-4.875
1764839602.611812,0,0,-478,-59.750
1764839602.6157758,0,0,-781,-97.625
1764839602.6197736,0,0,-46,-5.750
1764839602.6237924,0,0,680,85.000
1764839602.627792,0,0,146,18.250
1764839602.631789,0,0,-420,-52.500
1764839602.635774,0,0,-836,-104.500
1764839602.6397758,0,0,-273,-34.125
1764839602.643789,0,0,507,63.375
1764839602.6477878,0,0,91,11.375
1764839602.651794,0,0,-412,-51.500
1764839602.6557872,0,0,-825,-103.125
1764839602.6597898,0,0,-300,-37.500
1764839602.66379,0,0,497,62.125
1764839602.6677861,0,0,102,12.750
1764839602.671791,0,0,-401,-50.125
1764839602.6757877,0,0,-821,-102.625
1764839602.6797843,0,0,-244,-30.500
1764839602.683783,0,0,695,86.875
1764839602.6877868,0,0,289,36.125
1764839602.6917906,0,0,-313,-39.125
1764839602.6957831,0,0,-734,-91.750
1764839602.6999183,0,0,9,1.125
1764839602.703795,0,0,1110,138.750
1764839602.7077906,0,0,610,76.250
1764839602.7117941,0,0,-195,-24.375
1764839602.7157886,0,0,-749,-93.625
1764839602.7197888,0,0,-391,-48.875
1764839602.7237859,0,0,534,66.750
1764839602.7277718,0,0,225,28.125
1764839602.7317803,0,0,-331,-41.375
1764839602.7357733,0,0,-712,-89.000
1764839602.7397723,0,0,132,16.500
1764839602.7437713,0,0,1427,178.375
1764839602.7477725,0,0,903,112.875
1764839602.751789,0,0,-61,-7.625
1764839602.755792,0,0,-724,-90.500
1764839602.7597926,0,0,-610,-76.250
1764839602.7637904,0,0,323,40.375
1764839602.767787,0,0,137,17.125
1764839602.7717953,0,0,-702,-87.750
1764839602.7757912,0,0,-474,-59.250
1764839602.7797906,0,0,447,55.875
1764839602.783792,0,0,223,27.875
1764839602.7877874,0,0,-328,-41.000
1764839602.7917845,0,0,-662,-82.750
1764839602.7957702,0,0,-215,-26.875
1764839602.7997751,0,0,925,115.625
1764839602.803775,0,0,606,75.750
1764839602.8079708,1,1,-171,-21.375
1764839602.811793,0,0,-625,-78.125
1764839602.8157718,0,0,-431,-53.875
1764839602.8197758,0,0,536,67.000
1764839602.8237925,0,0,333,41.625
1764839602.8277915,0,0,-276,-34.500
1764839602.831782,0,0,-637,-79.625
1764839602.8357704,0,0,-554,-69.250
1764839602.8397753,0,0,428,53.500
1764839602.8437917,0,0,309,38.625
1764839602.8477883,0,0,-270,-33.750
1764839602.8518682,0,0,-599,-74.875
1764839602.8557866,0,0,10,1.250
1764839602.8597898,0,0,1577,197.125
1764839602.8637953,0,0,1253,156.625
1764839602.867788,0,0,129,16.125
1764839602.8717918,0,0,-570,-71.250
1764839602.8757868,0,0,-364,-45.500
1764839602.8797855,0,0,927,115.875
1764839602.8837867,0,0,779,97.375
1764839602.8877861,0,0,-66,-8.250
1764839602.8917935,0,0,-583,-72.875
1764839602.8957858,0,0,-271,-33.875
1764839602.8997836,0,0,1121,140.125
1764839602.9037864,0,0,948,118.500
1764839602.9077876,0,0,-4,-0.500
1764839602.911792,0,0,-596,-74.500
1764839602.9157882,0,0,-742,-92.750
1764839602.9199731,0,0,303,37.875
1764839602.923783,0,0,375,46.875
1764839602.9277732,0,0,-217,-27.125
1764839602.9317884,0,0,-581,-72.625
1764839602.9357896,0,0,-633,-79.125
1764839602.9397848,0,0,662,82.750
1764839602.9437764,0,0,759,94.875
1764839602.9477696,0,0,-11,-1.375
1764839602.9517865,0,0,-528,-66.000
1764839602.9557886,0,0,-875,-109.375
1764839602.9597857,0,0,-55,-6.875
1764839602.9637842,0,0,119,14.875
1764839602.9677858,0,0,-322,-40.250
1764839602.9717927,0,0,-557,-69.625
1764839602.975789,0,0,-617,-77.125
1764839602.9797864,0,0,434,54.250
1764839602.9837887,0,0,536,67.000
1764839602.9877856,0,0,-135,-16.875
1764839602.9917936,0,0,-536,-67.000
1764839602.995786,0,0,-589,-73.625
1764839602.9997873,0,0,654,81.750
1764839603.003785,0,0,815,101.875
1764839603.0129976,0,0,-492,-61.500
1764839603.015894,0,0,-150,-18.750
1764839603.019799,0,0,1895,236.875
1764839603.0237882,0,0,1995,249.375
1764839603.0277686,0,0,603,75.375
1764839603.0317855,0,0,-408,-51.000
1764839603.0357869,0,0,-368,-46.000
1764839603.0397887,0,0,1321,165.125
1764839603.0437758,0,0,1503,187.875
1764839603.0477662,0,0,357,44.625
1764839603.0517719,0,0,-464,-58.000
1764839603.0557663,0,0,-568,-71.000
1764839603.059768,0,0,807,100.875
1764839603.0637836,0,0,1060,132.500
1764839603.0677862,0,1,139,17.375
1764839603.071785,0,0,-512,-64.000
1764839603.0757787,0,0,-766,-95.750
1764839603.0797815,0,0,437,54.625
1764839603.0837817,0,0,840,105.000
1764839603.0877807,0,1,79,9.875
1764839603.0917845,0,0,-492,-61.500
1764839603.09578,0,0,-688,-86.000
1764839603.0997775,0,0,897,112.125
1764839603.1037836,0,0,1425,178.125
1764839603.1077707,0,1,438,54.750
1764839603.1117775,0,0,-392,-49.000
1764839603.1157804,0,0,-831,-103.875
1764839603.1197793,0,0,212,26.500
1764839603.12378,0,0,716,89.500
1764839603.1277812,1,1,53,6.625
1764839603.1320634,0,0,-478,-59.750
1764839603.135788,0,0,-680,-85.000
1764839603.1397808,0,0,707,88.375
1764839603.1437771,0,0,1254,156.750
1764839603.147769,1,1,346,43.250
1764839603.151786,0,0,-423,-52.875
1764839603.155781,0,0,-866,-108.250
1764839603.1597836,0,0,-144,-18.000
1764839603.1637688,0,0,331,41.375
1764839603.1677668,1,1,-176,-22.000
1764839603.1717868,0,0,-551,-68.875
1764839603.1757827,0,0,-835,-104.375
1764839603.1797795,0,0,-78,-9.750
1764839603.1837826,0,0,470,58.750
1764839603.1877828,1,1,-61,-7.625
1764839603.1917837,0,0,-494,-61.750
1764839603.1957781,0,0,-801,-100.125
1764839603.1999412,0,0,-10,-1.250
1764839603.2037892,0,0,566,70.750
1764839603.2077813,1,1,6,0.750
1764839603.2119734,0,0,-474,-59.250
1764839603.215782,0,0,-757,-94.625
1764839603.2197711,0,0,244,30.500
1764839603.2237668,0,0,931,116.375
1764839603.227765,1,1,255,31.875
1764839603.2317815,0,0,-397,-49.625
1764839603.2357833,0,0,-759,-94.875
1764839603.2397845,0,0,143,17.875
1764839603.246681,0,0,253,31.625
1764839603.2485855,1,1,-386,-48.250
1764839603.2517846,0,0,-386,-48.250
1764839603.2557685,0,0,-766,-95.750
1764839603.2597682,0,0,29,3.625
1764839603.263771,0,0,751,93.875
1764839603.2677662,1,1,183,22.875
1764839603.2717686,0,0,-408,-51.000
1764839603.2757638,0,0,-751,-93.875
1764839603.279765,0,0,-15,-1.875
1764839603.2837865,0,0,742,92.750
1764839603.2877805,1,1,205,25.625
1764839603.291784,0,0,-390,-48.750
1764839603.2957828,0,0,-700,-87.500
1764839603.2997842,0,0,425,53.125
1764839603.3037758,0,0,1423,177.875
1764839603.3078077,1,1,686,85.750
1764839603.3120635,0,0,-230,-28.750
1764839603.3177247,0,0,-159,-19.875
1764839603.319896,0,0,-159,-19.875
1764839603.323794,0,0,777,97.125
1764839603.3277695,1,1,326,40.750
1764839603.3317826,0,0,-323,-40.375
1764839603.3357775,0,0,-753,-94.125
1764839603.3398159,0,0,-94,-11.750
1764839603.3437724,0,0,899,112.375
1764839603.3477676,1,1,428,53.500
1764839603.3517654,0,0,-289,-36.125
1764839603.355761,0,0,-769,-96.125
1764839603.3597653,0,0,-430,-53.750
1764839603.3637836,0,0,145,18.125
1764839603.3677826,1,1,-378,-47.250
1764839603.3717797,0,0,-733,-91.625
1764839603.3757637,0,0,-418,-52.250
1764839603.3797667,0,0,485,60.625
1764839603.383788,0,0,202,25.250
1764839603.3877854,1,1,-351,-43.875
1764839603.3917875,0,0,-675,-84.375
1764839603.395779,0,0,42,5.250
1764839603.3997812,0,0,1230,153.750
1764839603.4037795,0,0,754,94.250
1764839603.407782,1,1,-143,-17.875
1764839603.4119966,0,0,-664,-83.000
1764839603.4157922,0,0,113,14.125
1764839603.4197855,0,0,1459,182.375
1764839603.4237735,0,0,965,120.625
1764839603.4277658,1,1,-57,-7.125
1764839603.4317846,0,0,-696,-87.000
1764839603.4357836,0,0,-727,-90.875
1764839603.4397812,0,0,66,8.250
1764839603.4437675,0,0,-42,-5.250
1764839603.4477663,1,1,-449,-56.125
1764839603.4517817,0,0,-681,-85.125
1764839603.455782,0,0,-548,-68.500
1764839603.459778,0,0,304,38.000
1764839603.4637778,0,0,137,17.125
1764839603.4677799,1,1,-374,-46.750
1764839603.4717836,0,0,-656,-82.000
1764839603.4757783,0,0,-376,-47.000
1764839603.4797802,0,0,807,100.875
1764839603.4837794,0,0,611,76.375
1764839603.4877863,1,1,-152,-19.000
1764839603.4917858,0,0,-627,-78.375
1764839603.4957654,0,0,-637,-79.625
1764839603.4997654,0,0,275,34.375
1764839603.503778,0,0,194,24.250
1764839603.50778,1,1,-338,-42.250
1764839603.5117743,0,0,-575,-71.875
1764839603.5157614,0,0,-31,-3.875
1764839603.5197628,0,0,1301,162.625
1764839603.5237844,0,0,1003,125.375
1764839603.5277793,1,1,-4,-0.500
1764839603.5317862,0,0,-602,-75.250
1764839603.5357807,0,0,-697,-87.125
1764839603.5397823,0,0,247,30.875
1764839603.5437832,0,0,257,32.125
1764839603.5477781,1,1,-289,-36.125
1764839603.551775,0,0,-595,-74.375
1764839603.5557618,0,0,-702,-87.750
1764839603.559764,0,0,249,31.125
1764839603.5637822,0,0,304,38.000
1764839603.567778,1,1,-246,-30.750
1764839603.571785,0,0,-561,-70.125
1764839603.575777,0,0,-402,-50.250
1764839603.5797794,0,0,947,118.375
1764839603.5837848,0,0,925,115.625
1764839603.5877814,1,1,38,4.750
1764839603.5917811,0,0,-521,-65.125
1764839603.5957778,0,0,-441,-55.125
1764839603.5997794,0,0,903,112.875
1764839603.60378,0,0,931,116.375
1764839603.6077783,1,1,47,5.875
1764839603.6119852,0,0,-522,-65.250
1764839603.615791,0,0,-377,-47.125
1764839603.6197798,0,0,1163,145.375
1764839603.6237738,0,0,1223,152.875
1764839603.6277633,1,1,198,24.750
1764839603.6317787,0,0,-496,-62.000
1764839603.635778,0,0,-458,-57.250
1764839603.6397803,0,0,1066,133.250
1764839603.6437676,0,0,1206,150.750
1764839603.6477613,1,1,208,26.000
1764839603.651781,0,0,-490,-61.250
1764839603.6557736,0,0,-470,-58.750
1764839603.6597729,0,0,1029,128.625
1764839603.6637752,0,0,1197,149.625
1764839603.6677752,1,1,201,25.125
1764839603.6717799,0,0,-502,-62.750
1764839603.6757734,0,0,-667,-83.375
1764839603.6797717,0,0,755,94.375
1764839603.6837726,0,0,1075,134.375
1764839603.6877737,1,1,190,23.750
1764839603.6917768,0,0,-469,-58.625
1764839603.6957712,0,0,-549,-68.625
1764839603.6998806,0,0,1101,137.625
1764839603.7037885,0,0,1457,182.125
1764839603.7077744,1,1,392,49.000
1764839603.711781,0,0,-440,-55.000
1764839603.7157786,0,0,-658,-82.250
1764839603.7197754,0,0,860,107.500
1764839603.7237732,0,0,1278,159.750
1764839603.7277732,1,1,316,39.500
1764839603.7317817,0,0,-453,-56.625
1764839603.7357771,0,0,-719,-89.875
1764839603.739784,0,0,525,65.625
1764839603.7439702,0,0,960,120.000
1764839603.747777,1,1,147,18.375
1764839603.7517738,0,0,-493,-61.625
1764839603.755762,0,0,-834,-104.250
1764839603.7597625,0,0,18,2.250
1764839603.7637746,0,0,427,53.375
1764839603.767774,1,1,-151,-18.875
1764839603.7717733,0,0,-563,-70.375
1764839603.775761,0,0,-704,-88.000
1764839603.779761,0,0,390,48.750
1764839603.783786,0,0,841,105.125
1764839603.787777,1,1,89,11.125
1764839603.7917802,0,0,-501,-62.625
1764839603.795778,0,0,-857,-107.125
1764839603.7997768,0,0,-17,-2.125
1764839603.8037639,0,0,506,63.250
1764839603.807757,1,1,-56,-7.000
1764839603.8119707,0,0,-509,-63.625
1764839603.815774,0,0,-807,-100.875
1764839603.8197658,0,0,63,7.875
1764839603.8237617,0,0,636,79.500
1764839603.8277624,1,1,43,5.375
1764839603.8317726,0,0,-474,-59.250
1764839603.8357759,0,0,-661,-82.625
1764839603.839778,0,0,785,98.125
1764839603.8437657,0,0,1511,188.875
1764839603.847759,1,1,574,71.750
1764839603.8518353,0,0,-329,-41.125
1764839603.85578,0,0,-718,-89.750
1764839603.8597755,0,0,382,47.750
1764839603.863779,0,0,1045,130.625
1764839603.8677762,1,1,290,36.250
1764839603.8717754,0,0,-424,-53.000
1764839603.875771,0,0,-813,-101.625
1764839603.8797715,0,0,53,6.625
1764839603.8837757,0,0,765,95.625
1764839603.8877747,1,1,170,21.250
1764839603.8920448,0,0,-433,-54.125
1764839603.8957753,0,0,-763,-95.375
1764839603.899772,0,0,237,29.625
1764839603.9037676,0,0,1042,130.250
1764839603.90776,1,1,365,45.625
1764839603.9117727,0,0,-373,-46.625
1764839603.9157715,0,0,-839,-104.875
1764839603.9197721,0,0,-215,-26.875
1764839603.9237614,0,0,568,71.000
1764839603.9277577,1,1,115,14.375
1764839603.9317758,0,0,-429,-53.625
1764839603.9357793,0,0,-705,-88.125
1764839603.9397726,0,0,541,67.625
1764839603.943779,0,0,1588,198.500
1764839603.947777,1,1,787,98.375
1764839603.9517794,0,0,-828,-103.500
1764839603.9557748,0,0,-84,-10.500
1764839603.9597745,0,0,965,120.625
1764839603.9637728,0,0,469,58.625
1764839603.9677708,1,1,-288,-36.000
1764839603.97178,0,0,-767,-95.875
1764839603.9757757,0,0,220,27.500
1764839603.9797761,0,0,1415,176.875
1764839603.9837751,0,0,786,98.250
1764839603.98777,1,1,-185,-23.125
1764839603.991777,0,0,-745,-93.125
1764839603.9957774,0,0,216,27.000
1764839603.9997768,0,0,1426,178.250
1764839604.0037727,0,0,807,100.875
1764839604.0077705,1,1,-188,-23.500
1764839604.0169842,0,0,539,67.375
1764839604.0198843,0,0,2095,261.875
1764839604.0237777,0,0,1339,167.375
1764839604.0277576,1,1,13,1.625
1764839604.031773,0,0,-794,-99.250
1764839604.0357752,0,0,49,6.125
1764839604.0397773,0,0,1509,188.625
1764839604.0437639,0,0,992,124.000
1764839604.0477538,1,1,-101,-12.625
1764839604.0517616,0,0,-804,-100.500
1764839604.0557592,0,0,-719,-89.875
1764839604.0597603,0,0,127,15.875
1764839604.0637736,0,0,-42,-5.250
1764839604.06777,1,1,-513,-64.125
1764839604.0717745,0,0,-772,-96.500
1764839604.0757704,0,0,-70,-8.750
1764839604.079772,0,0,1257,157.125
1764839604.0837712,0,0,828,103.500
1764839604.0877721,1,1,-169,-21.125
1764839604.0917766,0,0,-769,-96.125
1764839604.0957708,0,0,-200,-25.000
1764839604.0997717,0,0,1138,142.250
1764839604.1037765,0,0,778,97.250
1764839604.107774,1,1,-181,-22.625
1764839604.111773,0,0,-760,-95.000
1764839604.1157708,0,0,-620,-77.500
1764839604.1197703,0,0,421,52.625
1764839604.123768,0,0,276,34.500
1764839604.1277566,1,1,-368,-46.000
1764839604.1317737,0,0,-726,-90.750
1764839604.1357696,0,0,27,3.375
1764839604.1397686,0,0,1733,216.625
1764839604.1437747,0,0,1356,169.500
1764839604.147861,1,1,90,11.250
1764839604.151787,0,0,-715,-89.375
1764839604.155761,0,0,-543,-67.875
1764839604.1597993,0,0,753,94.125
1764839604.1638181,0,0,633,79.125
1764839604.1678166,1,1,-195,-24.375
1764839604.1718173,0,0,-717,-89.625
1764839604.1757982,0,0,-984,-123.000
1764839604.1798096,0,0,-166,-20.750
1764839604.1838188,0,0,-76,-9.500
1764839604.1878145,1,1,-495,-61.875
1764839604.1918182,0,0,-730,-91.250
1764839604.195816,0,0,-806,-100.750
1764839604.1998165,0,0,99,12.375
1764839604.2038174,0,0,132,16.500
1764839604.2078123,1,1,-406,-50.750
1764839604.2118227,0,0,-691,-86.375
1764839604.2158942,0,0,-261,-32.625
1764839604.2198372,0,0,1367,170.875
1764839604.2238095,0,0,1256,157.000
1764839604.2277966,1,1,117,14.625
1764839604.2318134,0,0,-635,-79.375
1764839604.2358153,0,0,-397,-49.625
1764839604.2398167,0,0,1407,175.875
1764839604.244097,0,0,1427,178.375
1764839604.2480423,1,1,241,30.125
1764839604.2518528,0,0,-595,-74.375
1764839604.2558005,0,0,-741,-92.625
1764839604.2597578,0,0,489,61.125
1764839604.263779,0,0,629,78.625
1764839604.2677677,1,1,-140,-17.500
1764839604.271767,0,0,-645,-80.625
1764839604.2757668,0,0,-505,-63.125
1764839604.279769,0,0,1125,140.625
1764839604.2837696,0,0,1249,156.125
1764839604.2877698,1,1,169,21.125
1764839604.2917745,0,0,-600,-75.000
1764839604.2957685,0,0,-842,-105.250
1764839604.299767,0,0,266,33.250
1764839604.3037612,0,0,501,62.625
1764839604.3077736,1,1,-186,-23.250
1764839604.3117805,0,0,-644,-80.500
1764839604.3157687,0,0,-736,-92.000
1764839604.31977,0,0,376,47.000
1764839604.323759,0,0,599,74.875
1764839604.3277552,1,1,-143,-17.875
1764839604.331758,0,0,-635,-79.375
1764839604.335752,0,0,-818,-102.250
1764839604.3397503,0,0,264,33.000
1764839604.3437753,0,0,582,72.750
1764839604.347771,1,1,-115,-14.375
1764839604.351774,0,0,-601,-75.125
1764839604.3557682,0,0,-791,-98.875
1764839604.359768,0,0,267,33.375
1764839604.3637714,0,0,616,77.000
1764839604.3677819,1,1,-82,-10.250
1764839604.3717756,0,0,-583,-72.875
1764839604.3757675,0,0,-842,-105.250
1764839604.3797693,0,0,43,5.375
1764839604.3837693,0,0,418,52.250
1764839604.3877704,1,1,-177,-22.125
1764839604.391775,0,0,-593,-74.125
1764839604.3957694,0,0,-612,-76.500
1764839604.399766,0,0,1063,132.875
1764839604.403767,0,0,1568,196.000
1764839604.4077704,1,1,482,60.250
1764839604.4117768,0,0,-433,-54.125
1764839604.4158463,0,0,-825,-103.125
1764839604.4197822,0,0,435,54.375
1764839604.4237652,0,0,1024,128.000
1764839604.427754,1,1,223,27.875
1764839604.4317672,0,0,-474,-59.250
1764839604.4357686,0,0,-819,-102.375
1764839604.439765,0,0,379,47.375
1764839604.4437573,0,0,1011,126.375
1764839604.4477494,1,1,237,29.625
1764839604.451768,0,0,-466,-58.250
1764839604.4557693,0,0,-686,-85.750
1764839604.4597714,0,0,981,122.625
1764839604.4637687,0,0,1728,216.000
1764839604.467764,1,1,661,82.625
1764839604.4717689,0,0,-363,-45.375
1764839604.4757695,0,0,-884,-110.500
1764839604.4797676,0,0,164,20.500
1764839604.483763,0,0,855,106.875
1764839604.4877632,1,1,172,21.500
1764839604.4917712,0,0,-487,-60.875
1764839604.4957688,0,0,-815,-101.875
1764839604.4997697,0,0,401,50.125
1764839604.5037706,0,0,1170,146.250
1764839604.5077643,1,1,377,47.125
1764839604.51177,0,0,-428,-53.500
1764839604.515766,0,0,-843,-105.375
1764839604.5197656,0,0,462,57.750
1764839604.5237687,0,0,1444,180.500
1764839604.5277627,1,1,626,78.250
1764839604.531768,0,0,-323,-40.375
1764839604.5357635,0,0,-925,-115.625
1764839604.5397663,0,0,-244,-30.500
1764839604.5437696,0,0,92,11.500
1764839604.5477643,1,1,-483,-60.375
1764839604.55176,0,0,-775,-96.875
1764839604.5557497,0,0,552,69.000
1764839604.5597963,0,0,1583,197.875
1764839604.5638149,0,0,737,92.125
1764839604.5678177,1,1,-289,-36.125
1764839604.571824,0,0,-843,-105.375
1764839604.5758097,0,0,259,32.375
1764839604.5798068,0,0,1341,167.625
1764839604.5837996,0,0,637,79.625
1764839604.5877914,1,1,-309,-38.625
1764839604.5918057,0,0,-806,-100.750
1764839604.595805,0,0,471,58.875
1764839604.5998075,0,0,1694,211.750
1764839604.6037967,0,0,897,112.125
1764839604.6077914,1,1,-222,-27.750
1764839604.6118126,0,0,-871,-108.875
1764839604.615882,0,0,-209,-26.125
1764839604.6198254,0,0,795,99.375
1764839604.623801,0,0,323,40.375
1764839604.6277933,1,1,-415,-51.875
1764839604.6318126,0,0,-864,-108.000
1764839604.6358094,0,0,-485,-60.625
1764839604.639808,0,0,357,44.625
1764839604.6437948,0,0,28,3.500
1764839604.6477916,1,1,-519,-64.875
1764839604.6518137,0,0,-851,-106.375
1764839604.65581,0,0,-369,-46.125
1764839604.6597667,0,0,600,75.000
1764839604.663768,0,0,238,29.750
1764839604.6677644,1,1,-425,-53.125
1764839604.6717699,0,0,-809,-101.125
1764839604.6757662,0,0,-267,-33.375
1764839604.6797624,0,0,804,100.500
1764839604.6837618,0,0,415,51.875
1764839604.6877744,1,1,-355,-44.375
1764839604.6918008,0,0,-807,-100.875
1764839604.6957724,0,0,-280,-35.000
1764839604.6997666,0,0,899,112.375
1764839604.7037644,0,0,540,67.500
1764839604.7077618,1,1,-287,-35.875
1764839604.7117639,0,0,-776,-97.000
1764839604.715765,0,0,-364,-45.500
1764839604.7197638,0,0,789,98.625
1764839604.7237496,0,0,491,61.375
1764839604.7277448,1,1,-297,-37.125
1764839604.731765,0,0,-773,-96.625
1764839604.735766,0,0,-632,-79.000
1764839604.7397647,0,0,366,45.750
1764839604.7437654,0,0,214,26.750
1764839604.7477622,1,1,-392,-49.000
1764839604.751765,0,0,-754,-94.250
1764839604.755764,0,0,-626,-78.250
1764839604.7597647,0,0,393,49.125
1764839604.7637634,0,0,264,33.000
1764839604.7677617,1,1,-362,-45.250
1764839604.7717679,0,0,-707,-88.375
1764839604.7757647,0,0,-331,-41.375
1764839604.7797627,0,0,990,123.750
1764839604.7837663,0,0,778,97.250
1764839604.787761,1,1,-132,-16.500
1764839604.7917647,0,0,-684,-85.500
1764839604.7957616,0,0,-330,-41.250
1764839604.7997634,0,0,1136,142.000
1764839604.8037536,0,0,958,119.750
1764839604.8077493,1,1,-39,-4.875
1764839604.81175,0,0,-637,-79.625
1764839604.8158178,0,0,263,32.875
1764839604.8197637,0,0,2344,293.000
1764839604.8237555,0,0,1963,245.375
1764839604.827751,1,1,382,47.750
1764839604.8317492,0,0,-669,-83.625
1764839604.8357463,0,0,-345,-43.125
1764839604.8397458,0,0,1531,191.375
1764839604.843748,0,0,1443,180.375
1764839604.8477464,1,1,200,25.000
1764839604.851767,0,0,-663,-82.875
1764839604.8557618,0,0,-654,-81.750
1764839604.8597598,0,0,861,107.625
1764839604.8637662,0,0,927,115.875
1764839604.8677652,1,1,-22,-2.750
1764839604.8717675,0,0,-683,-85.375
1764839604.8757603,0,0,-1276,-159.500
1764839604.8797722,0,0,-846,-105.750
1764839604.8837583,0,0,-596,-74.500
1764839604.887763,1,1,-750,-93.750
1764839604.8917706,0,0,-763,-95.375
1764839604.8957598,0,0,-258,-32.250
1764839604.8997586,0,0,1653,206.625
1764839604.903762,0,0,1654,206.750
1764839604.9077642,1,1,331,41.375
1764839604.9117644,0,0,-614,-76.750
1764839604.915762,0,0,-550,-68.750
1764839604.9197593,0,0,1379,172.375
1764839604.923761,0,0,1591,198.875
1764839604.9277635,1,1,363,45.375
1764839604.931766,0,0,-562,-70.250
1764839604.9357615,0,0,-379,-47.375
1764839604.9397616,0,0,1443,180.375
1764839604.9437633,0,0,1548,193.500
1764839604.9477584,1,1,283,35.375
1764839604.951766,0,0,-638,-79.750
1764839604.9557602,0,0,-828,-103.500
1764839604.959808,0,0,551,68.875
1764839604.9638011,0,0,848,106.000
1764839604.9678035,1,1,-18,-2.250
1764839604.9718153,0,0,-652,-81.500
1764839604.97579,0,0,-692,-86.500
1764839604.9797864,0,0,913,114.125
1764839604.9838006,0,0,1239,154.875
1764839604.9878037,1,1,192,24.000
1764839604.9917974,0,0,-614,-76.750
1764839604.9957855,0,0,-836,-104.500
1764839604.999787,0,0,629,78.625
1764839605.0038118,0,0,1062,132.750
1764839605.0078037,1,1,141,17.625
1764839605.0118105,0,0,-599,-74.875
1764839605.0221756,0,0,350,43.750
1764839605.0240786,0,0,350,43.750
1764839605.0278072,1,1,-225,-28.125
1764839605.0318046,0,0,-665,-83.125
1764839605.035788,0,0,-761,-95.125
1764839605.0397892,0,0,777,97.125
1764839605.0438092,0,0,1280,160.000
1764839605.0478048,1,1,283,35.375
1764839605.0517993,0,0,-555,-69.375
1764839605.055784,0,0,-825,-103.125
1764839605.0597513,0,0,829,103.625
1764839605.0637646,0,0,1505,188.125
1764839605.0677629,1,1,473,59.125
1764839605.0717647,0,0,-479,-59.875
1764839605.0757573,0,0,-829,-103.625
1764839605.0797615,0,0,735,91.875
1764839605.0837653,0,0,1433,179.125
1764839605.0877655,1,1,440,55.000
1764839605.0917637,0,0,-492,-61.500
1764839605.0957434,0,0,-892,-111.500
1764839605.099742,0,0,551,68.875
1764839605.103761,0,0,1298,162.250
1764839605.1077595,1,1,385,48.125
1764839605.1117563,0,0,-502,-62.750
1764839605.1157386,0,0,-989,-123.625
1764839605.1197402,0,0,-64,-8.000
1764839605.1237648,0,0,622,77.750
1764839605.1277602,1,1,5,0.625
1764839605.1317675,0,0,-597,-74.625
1764839605.135757,0,0,16,2.000
1764839605.1397598,0,0,685,85.625
1764839605.1437593,0,0,36,4.500
1764839605.1477585,1,1,-596,-74.500
1764839605.1517584,0,0,-1039,-129.875
1764839605.1557598,0,0,-567,-70.875
1764839605.1597579,0,0,110,13.750
1764839605.1637561,0,0,-246,-30.750
1764839605.1677556,1,1,-631,-78.875
1764839605.1717658,0,0,-866,-108.250
1764839605.175759,0,0,375,46.875
1764839605.179759,0,0,1378,172.250
1764839605.1837611,0,0,591,73.875
1764839605.1877604,1,1,-364,-45.500
1764839605.1917624,0,0,-860,-107.500
1764839605.1957586,0,0,501,62.625
1764839605.199755,0,0,1650,206.250
1764839605.2037597,0,0,805,100.625
1764839605.2077553,1,1,-290,-36.250
1764839605.2117665,0,0,-903,-112.875
1764839605.2157595,0,0,243,30.375
1764839605.2198358,0,0,1374,171.750
1764839605.223766,0,0,650,81.250
1764839605.227742,1,1,-338,-42.250
1764839605.2317579,0,0,-851,-106.375
1764839605.2357597,0,0,161,20.125
1764839605.239761,0,0,1231,153.875
1764839605.2440665,0,0,557,69.625
1764839605.2479687,1,1,-380,-47.500
1764839605.2517998,0,0,-883,-110.375
1764839605.2557578,0,0,168,21.000
1764839605.2597568,0,0,1372,171.500
1764839605.2637603,0,0,703,87.875
1764839605.2677546,1,1,-316,-39.500
1764839605.2717552,0,0,-949,-118.625
1764839605.2757542,0,0,-563,-70.375
1764839605.279757,0,0,399,49.875
1764839605.2837608,0,0,87,10.875
1764839605.2877562,1,1,-513,-64.125
1764839605.291754,0,0,-873,-109.125
1764839605.2957394,0,0,-38,-4.750
1764839605.2997425,0,0,1232,154.000
1764839605.3037617,0,0,704,88.000
1764839605.3077536,1,1,-282,-35.250
1764839605.311755,0,0,-876,-109.500
1764839605.3157558,0,0,-221,-27.625
1764839605.3197553,0,0,1068,133.500
1764839605.3237562,0,0,642,80.250
1764839605.3277552,1,1,-288,-36.000
1764839605.3317606,0,0,-835,-104.375
1764839605.3357544,0,0,-7,-0.875
1764839605.3397543,0,0,1417,177.125
1764839605.3437495,0,0,908,113.500
1764839605.3477402,1,1,-197,-24.625
1764839605.3517544,0,0,-833,-104.125
1764839605.3557534,0,0,-268,-33.500
1764839605.3598008,0,0,1020,127.500
1764839605.3637996,0,0,650,81.250
1764839605.367799,1,1,-291,-36.375
1764839605.3718085,0,0,-860,-107.500
1764839605.3758144,0,0,-628,-78.500
1764839605.3798041,0,0,566,70.750
1764839605.383793,0,0,393,49.125
1764839605.3877769,1,1,-359,-44.875
1764839605.3918002,0,0,-815,-101.875
1764839605.3957982,0,0,-556,-69.500
1764839605.3997936,0,0,563,70.375
1764839605.4037828,0,0,363,45.375
1764839605.4077806,1,1,-387,-48.375
1764839605.4118016,0,0,-819,-102.375
1764839605.415804,0,0,-215,-26.875
1764839605.4198864,0,0,1479,184.875
1764839605.4237976,0,0,1197,149.625
1764839605.4277852,1,1,0,0.000
1764839605.4317968,0,0,-771,-96.375
1764839605.4358015,0,0,-304,-38.000
1764839605.439797,0,0,1419,177.375
1764839605.4437864,0,0,1201,150.125
1764839605.4477792,1,1,14,1.750
1764839605.4517977,0,0,-766,-95.750
1764839605.4557984,0,0,-427,-53.375
1764839605.4597585,0,0,1252,156.500
1764839605.463758,0,0,1119,139.875
1764839605.467753,1,1,-12,-1.500
1764839605.471756,0,0,-733,-91.625
1764839605.4757543,0,0,-148,-18.500
1764839605.479754,0,0,1727,215.875
1764839605.4837532,0,0,1512,189.000
1764839605.4877493,1,1,151,18.875
1764839605.491761,0,0,-762,-95.250
1764839605.4957561,0,0,-451,-56.375
1764839605.4997594,0,0,1501,187.625
1764839605.503761,0,0,1482,185.250
1764839605.5077543,1,1,185,23.125
1764839605.5117483,0,0,-738,-92.250
1764839605.5157382,0,0,-750,-93.750
1764839605.5197406,0,0,802,100.250
1764839605.5237563,0,0,917,114.625
1764839605.527752,1,1,-66,-8.250
1764839605.5317473,0,0,-756,-94.500
1764839605.5357394,0,0,-944,-118.000
1764839605.5397387,0,0,191,23.875
1764839605.5437565,0,0,384,48.000
1764839605.547754,1,1,-310,-38.750
1764839605.5517476,0,0,-767,-95.875
1764839605.5557363,0,0,-1171,-146.375
1764839605.5597827,0,0,-556,-69.500
1764839605.5637984,0,0,-299,-37.375
1764839605.5677993,1,1,-660,-82.500
1764839605.571802,0,0,-836,-104.500
1764839605.5757961,0,0,-617,-77.125
1764839605.5797987,0,0,952,119.000
1764839605.5838032,0,0,1143,142.875
1764839605.5877984,1,1,84,10.500
1764839605.5917988,0,0,-683,-85.375
1764839605.595796,0,0,-605,-75.625
1764839605.5997968,0,0,1273,159.125
1764839605.6037998,0,0,1556,194.500
1764839605.6077971,1,1,327,40.875
1764839605.6118004,0,0,-626,-78.250
1764839605.6157956,0,0,-1021,-127.625
1764839605.6198819,0,0,-15,-1.875
1764839605.6238122,0,0,364,45.500
1764839605.6277812,1,1,-265,-33.125
1764839605.6317956,0,0,-720,-90.000
1764839605.635794,0,0,-772,-96.500
1764839605.639798,0,0,579,72.375
1764839605.6437833,0,0,924,115.500
1764839605.6477797,1,1,15,1.875
1764839605.6518016,0,0,-670,-83.750
1764839605.6557968,0,0,-657,-82.125
1764839605.659756,0,0,1395,174.375
1764839605.6637564,0,0,1947,243.375
1764839605.667752,1,1,635,79.375
1764839605.671756,0,0,-505,-63.125
1764839605.675751,0,0,-857,-107.125
1764839605.6797497,0,0,706,88.250
1764839605.683749,0,0,1285,160.625
1764839605.6877522,1,1,288,36.000
1764839605.6917584,0,0,-587,-73.375
1764839605.69575,0,0,-782,-97.750
1764839605.699751,0,0,918,114.750
1764839605.703754,0,0,1538,192.250
1764839605.7077467,1,1,438,54.750
1764839605.7117567,0,0,-551,-68.875
1764839605.7157521,0,0,-994,-124.250
1764839605.7197511,0,0,219,27.375
1764839605.7237473,0,0,886,110.750
1764839605.7277474,1,1,108,13.500
1764839605.731756,0,0,-944,-118.000
1764839605.7357502,0,0,314,39.250
1764839605.7397487,0,0,1017,127.125
1764839605.7437522,0,0,196,24.500
1764839605.7477489,1,1,-591,-73.875
1764839605.7517564,0,0,-960,-120.000
1764839605.7557507,0,0,343,42.875
1764839605.759795,0,0,1137,142.125
1764839605.7637906,0,0,303,37.875
1764839605.7677896,1,1,-547,-68.375
1764839605.7717888,0,0,-963,-120.375
1764839605.7757766,0,0,538,67.250
1764839605.779776,0,0,1541,192.625
1764839605.7837942,0,0,616,77.000
1764839605.7877975,1,1,-429,-53.625
1764839605.7917948,0,0,-1023,-127.875
1764839605.7957783,0,0,-99,-12.375
1764839605.7997777,0,0,746,93.250
1764839605.803788,0,0,128,16.000
1764839605.8077748,1,1,-579,-72.375
1764839605.811776,0,0,-972,-121.500
1764839605.8157747,0,0,102,12.750
1764839605.8198678,0,0,1031,128.875
1764839605.8238003,0,0,331,41.375
1764839605.827775,1,1,-509,-63.625
1764839605.831787,0,0,-955,-119.375
1764839605.8357928,0,0,-91,-11.375
1764839605.8397946,0,0,746,93.250
1764839605.84378,0,0,146,18.250
1764839605.8477745,1,1,-573,-71.625
1764839605.851777,0,0,-961,-120.125
1764839605.8557742,0,0,240,30.000
1764839605.859736,0,0,1434,179.250
1764839605.8637583,0,0,692,86.500
1764839605.8677535,1,1,-351,-43.875
1764839605.87175,0,0,-1012,-126.500
1764839605.875748,0,0,-518,-64.750
1764839605.8797486,0,0,421,52.625
1764839605.883748,0,0,48,6.000
1764839605.887769,1,1,-560,-70.000
1764839605.8917654,0,0,-938,-117.250
1764839605.8957353,0,0,-290,-36.250
1764839605.8997316,0,0,717,89.625
1764839605.9037519,0,0,257,32.125
1764839605.907752,1,1,-488,-61.000
1764839605.9117486,0,0,-891,-111.375
1764839605.9157324,0,0,-110,-13.750
1764839605.9197328,0,0,1006,125.750
1764839605.9237473,0,0,481,60.125
1764839605.9277484,1,1,-402,-50.250
1764839605.9317572,0,0,-879,-109.875
1764839605.9357483,0,0,215,26.875
1764839605.9397466,0,0,1697,212.125
1764839605.9437509,0,0,1046,130.750
1764839605.9477499,1,1,-174,-21.750
1764839605.9517531,0,0,-919,-114.875
1764839605.9557474,0,0,-464,-58.000
1764839605.9597483,0,0,764,95.500
1764839605.963748,0,0,444,55.500
1764839605.9677446,1,1,-372,-46.500
1764839605.971753,0,0,-880,-110.000
1764839605.975748,0,0,-442,-55.250
1764839605.9797492,0,0,700,87.500
1764839605.9837484,0,0,377,47.125
1764839605.9877446,1,1,-417,-52.125
1764839605.9917505,0,0,-901,-112.625
1764839605.9957476,0,0,-817,-102.125
1764839605.999747,0,0,164,20.500
1764839606.0037434,0,0,44,5.500
1764839606.0077446,1,1,-516,-64.500
1764839606.0117452,0,0,-835,-104.375
1764839606.0157318,0,0,-372,-46.500
1764839606.0254567,0,0,551,68.875
1764839606.0277684,1,1,-320,-40.000
1764839606.031753,0,0,-813,-101.625
1764839606.0357673,0,0,114,14.250
1764839606.0397725,0,0,2002,250.250
1764839606.0437546,0,0,1545,193.125
1764839606.0477474,1,1,114,14.250
1764839606.0517445,0,0,-793,-99.125
1764839606.0557334,0,0,-465,-58.125
1764839606.0597358,0,0,1063,132.875
1764839606.0637505,0,0,886,110.750
1764839606.067749,1,1,-137,-17.125
1764839606.0717525,0,0,-775,-96.875
1764839606.0757453,0,0,-443,-55.375
1764839606.0797477,0,0,928,116.000
1764839606.0837493,0,0,741,92.625
1764839606.087747,1,1,-228,-28.500
1764839606.0917497,0,0,-822,-102.750
1764839606.095745,0,0,-841,-105.125
1764839606.099748,0,0,293,36.625
1764839606.1037502,0,0,318,39.750
1764839606.1077461,1,1,-372,-46.500
1764839606.1117487,0,0,-798,-99.750
1764839606.1157463,0,0,-767,-95.875
1764839606.1197472,0,0,440,55.000
1764839606.1237478,0,0,477,59.625
1764839606.1277466,1,1,-287,-35.875
1764839606.1317527,0,0,-764,-95.500
1764839606.1357434,0,0,-617,-77.125
1764839606.139744,0,0,781,97.625
1764839606.1437492,0,0,807,100.875
1764839606.1477468,1,1,-125,-15.625
1764839606.1517503,0,0,-741,-92.625
1764839606.1557424,0,0,-477,-59.625
1764839606.1597888,0,0,1356,169.500
1764839606.16379,0,0,1397,174.625
1764839606.1677902,1,1,177,22.125
1764839606.1717935,0,0,-684,-85.500
1764839606.1757877,0,0,-621,-77.625
1764839606.1797917,0,0,1049,131.125
1764839606.1837919,0,0,1178,147.250
1764839606.1877873,1,1,89,11.125
1764839606.1917949,0,0,-683,-85.375
1764839606.1957972,0,0,-595,-74.375
1764839606.1997952,0,0,1016,127.000
1764839606.2037897,0,0,1163,145.375
1764839606.2077858,1,1,73,9.125
1764839606.2117872,0,0,-703,-87.875
1764839606.2157886,0,0,-735,-91.875
1764839606.2197878,0,0,705,88.125
1764839606.2238636,0,0,924,115.500
1764839606.2277937,1,1,-30,-3.750
1764839606.2317903,0,0,-710,-88.750
1764839606.2357845,0,0,-868,-108.500
1764839606.239786,0,0,425,53.125
1764839606.2440739,0,0,751,93.875
1764839606.248011,1,1,-75,-9.375
1764839606.251815,0,0,-681,-85.125
1764839606.2557726,0,0,-760,-95.000
1764839606.2597334,0,0,939,117.375
1764839606.2637622,0,0,1361,170.125
1764839606.267739,1,1,274,34.250
1764839606.271743,0,0,-610,-76.250
1764839606.2757392,0,0,-1032,-129.000
1764839606.2797413,0,0,96,12.000
1764839606.28375,0,0,583,72.875
1764839606.2877462,1,1,-110,-13.750
1764839606.2917447,0,0,-665,-83.125
1764839606.2957377,0,0,-827,-103.375
1764839606.299741,0,0,644,80.500
1764839606.303936,0,0,214,26.750
1764839606.3077285,1,1,214,26.750
1764839606.3117313,0,0,-594,-74.250
1764839606.3157284,0,0,-844,-105.500
1764839606.3197274,0,0,711,88.875
1764839606.3237324,0,0,1314,164.250
1764839606.3277266,1,1,-556,-69.500
1764839606.3317285,0,0,-856,-107.000
1764839606.335724,0,0,770,96.250
1764839606.3397279,0,0,1453,181.625
1764839606.3437452,0,0,427,53.375
1764839606.3477416,1,1,-528,-66.000
1764839606.351743,0,0,-932,-116.500
1764839606.355743,0,0,301,37.625
1764839606.359743,0,0,935,116.875
1764839606.3637335,0,0,130,16.250
1764839606.367726,1,1,-607,-75.875
1764839606.371744,0,0,-879,-109.875
1764839606.375742,0,0,591,73.875
1764839606.3797426,0,0,1353,169.125
1764839606.383747,0,0,409,51.125
1764839606.3877435,1,1,-522,-65.250
1764839606.3917472,0,0,-871,-108.875
1764839606.3957396,0,0,894,111.750
1764839606.3997405,0,0,1856,232.000
1764839606.4037426,0,0,764,95.500
1764839606.4077415,1,1,-407,-50.875
1764839606.4117477,0,0,-1045,-130.625
1764839606.4157405,0,0,-124,-15.500
1764839606.4197388,0,0,696,87.000
1764839606.423826,0,0,89,11.125
1764839606.4277627,1,1,-583,-72.875
1764839606.4317434,0,0,-915,-114.375
1764839606.435725,0,0,468,58.500
1764839606.4397259,0,0,1445,180.625
1764839606.4437418,0,0,560,70.000
1764839606.447741,1,1,-452,-56.500
1764839606.4517407,0,0,-935,-116.875
1764839606.4557276,0,0,510,63.750
1764839606.4597268,0,0,1609,201.125
1764839606.4637418,0,0,706,88.250
1764839606.4677434,1,1,-396,-49.500
1764839606.471747,0,0,-981,-122.625
1764839606.4757411,0,0,-82,-10.250
1764839606.4797406,0,0,886,110.750
1764839606.4837413,0,0,277,34.625
1764839606.4877408,1,1,-525,-65.625
1764839606.491749,0,0,-950,-118.750
1764839606.4957418,0,0,304,38.000
1764839606.4997451,0,0,1499,187.375
1764839606.5037434,0,0,717,89.625
1764839606.5077465,1,1,-373,-46.625
1764839606.5117505,0,0,-969,-121.125
1764839606.5157297,0,0,242,30.250
1764839606.519727,0,0,1557,194.625
1764839606.5237415,0,0,817,102.125
1764839606.5277388,1,1,-323,-40.375
1764839606.5317361,0,0,-1009,-126.125
1764839606.5357258,0,0,-86,-10.750
1764839606.5397274,0,0,1290,161.250
1764839606.5437448,0,0,728,91.000
1764839606.5477376,1,1,-315,-39.375
1764839606.5517344,0,0,-1021,-127.625
1764839606.5557282,0,0,-1003,-125.375
1764839606.5597274,0,0,-202,-25.250
1764839606.5637417,0,0,-333,-41.625
1764839606.5677366,1,1,-707,-88.375
1764839606.571745,0,0,-902,-112.750
1764839606.575736,0,0,115,14.375
1764839606.5797398,0,0,1499,187.375
1764839606.5837455,0,0,881,110.125
1764839606.5877407,1,1,-264,-33.000
1764839606.5917425,0,0,-942,-117.750
1764839606.5957348,0,0,-260,-32.500
1764839606.5997405,0,0,1123,140.375
1764839606.6037412,0,0,702,87.750
1764839606.6077383,1,1,-300,-37.500
1764839606.611741,0,0,-895,-111.875
1764839606.6157367,0,0,179,22.375
1764839606.6197405,0,0,2070,258.750
1764839606.623825,0,0,1500,187.500
1764839606.6277583,1,1,41,5.125
1764839606.631737,0,0,-904,-113.000
1764839606.635723,0,0,-590,-73.750
1764839606.6397243,0,0,776,97.000
1764839606.6437395,0,0,549,68.625
1764839606.6477385,1,1,-335,-41.875
1764839606.6517403,0,0,-887,-110.875
1764839606.6557221,0,0,-48,-6.000
1764839606.6597204,0,0,1783,222.875
1764839606.6637435,0,0,1350,168.750
1764839606.6677406,1,1,-16,-2.000
1764839606.6717436,0,0,-901,-112.625
1764839606.6757371,0,0,-516,-64.500
1764839606.6797366,0,0,1121,140.125
1764839606.6837387,0,0,922,115.250
1764839606.687741,1,1,-164,-20.500
1764839606.6917493,0,0,-881,-110.125
1764839606.6957397,0,0,-786,-98.250
1764839606.6997392,0,0,516,64.500
1764839606.7037468,0,0,452,56.500
1764839606.7077413,1,1,-362,-45.250
1764839606.711745,0,0,-881,-110.125
1764839606.7157412,0,0,-577,-72.125
1764839606.7197456,0,0,993,124.125
1764839606.7237303,0,0,892,111.500
1764839606.7277238,1,1,-152,-19.000
1764839606.7317357,0,0,-839,-104.875
1764839606.735739,0,0,-431,-53.875
1764839606.7397385,0,0,1355,169.375
1764839606.74373,0,0,1224,153.000
1764839606.7477207,1,1,-5,-0.625
1764839606.751738,0,0,-828,-103.500
1764839606.7557406,0,0,-514,-64.250
1764839606.7597375,0,0,1213,151.625
1764839606.7637348,0,0,1140,142.500
1764839606.7677338,1,1,-40,-5.000
1764839606.7717433,0,0,-838,-104.750
1764839606.7757387,0,0,-874,-109.250
1764839606.7797353,0,0,587,73.375
1764839606.783737,0,0,726,90.750
1764839606.7877345,1,1,-180,-22.500
1764839606.79174,0,0,-815,-101.875
1764839606.7957382,0,0,-741,-92.625
1764839606.7997377,0,0,866,108.250
1764839606.8037276,0,0,988,123.500
1764839606.8077166,1,1,-60,-7.500
1764839606.8117323,0,0,-804,-100.500
1764839606.8157365,0,0,-949,-118.625
1764839606.8197393,0,0,437,54.625
1764839606.8238206,0,0,684,85.500
1764839606.8277507,1,1,-168,-21.000
1764839606.831734,0,0,-781,-97.625
1764839606.8357213,0,0,-826,-103.250
1764839606.8397238,0,0,602,75.250
1764839606.8437362,0,0,824,103.000
1764839606.847736,1,1,-111,-13.875
1764839606.8517332,0,0,-777,-97.125
1764839606.8557248,0,0,-923,-115.375
1764839606.8597345,0,0,391,48.875
1764839606.8637414,0,0,703,87.875
1764839606.8677397,1,1,-137,-17.125
1764839606.871732,0,0,-759,-94.875
1764839606.8757198,0,0,-744,-93.000
1764839606.879723,0,0,1068,133.500
1764839606.8837378,0,0,1427,178.375
1764839606.8877385,1,1,253,31.625
1764839606.891733,0,0,-675,-84.375
1764839606.895719,0,0,-712,-89.000
1764839606.8997176,0,0,961,120.125
1764839606.9037426,0,0,1302,162.750
1764839606.9077387,1,1,175,21.875
1764839606.9117415,0,0,-708,-88.500
1764839606.9157348,0,0,-1104,-138.000
1764839606.9197595,0,0,441,55.125
1764839606.923734,0,0,-215,-26.875
1764839606.9277222,1,1,-742,-92.750
1764839606.9317346,0,0,-733,-91.625
1764839606.935734,0,0,1352,169.000
1764839606.9397364,0,0,1999,249.875
1764839606.943727,0,0,673,84.125
1764839606.9477186,1,1,-530,-66.250
1764839606.9517386,0,0,-978,-122.250
1764839606.95574,0,0,555,69.375
1764839606.9597335,0,0,1211,151.375
1764839606.9637313,0,0,250,31.250
1764839606.9677331,1,1,-630,-78.750
1764839606.9717426,0,0,-918,-114.750
1764839606.9757345,0,0,707,88.375
1764839606.9797318,0,0,1404,175.500
1764839606.9837346,0,0,370,46.250
1764839606.9877334,1,1,-599,-74.875
1764839606.9917386,0,0,-1028,-128.500
1764839606.9957335,0,0,423,52.875
1764839606.9997337,0,0,1220,152.500
1764839607.0037332,0,0,321,40.125
1764839607.0077307,1,1,-573,-71.625
1764839607.0117388,0,0,-1087,-135.875
1764839607.0157342,0,0,-291,-36.375
1764839607.019734,0,0,361,45.125
1764839607.0289707,1,0,-751,-93.875
1764839607.0317614,0,0,-946,-118.250
1764839607.0357375,0,0,495,61.875
1764839607.0397353,0,0,1311,163.875
1764839607.0437195,0,0,387,48.375
1764839607.0477154,1,1,-565,-70.625
1764839607.0517216,0,0,-1031,-128.875
1764839607.0557196,0,0,345,43.125
1764839607.0597196,0,0,1336,167.000
1764839607.0637195,0,0,483,60.375
1764839607.0677145,1,1,-502,-62.750
1764839607.0717318,0,0,-1118,-139.750
1764839607.0757337,0,0,-472,-59.000
1764839607.079732,0,0,382,47.750
1764839607.083732,0,0,-66,-8.250
1764839607.087728,1,1,-645,-80.625
1764839607.0917368,0,0,-1021,-127.625
1764839607.0957294,0,0,-50,-6.250
1764839607.099732,0,0,920,115.000
1764839607.103736,0,0,284,35.500
1764839607.1077352,1,1,-536,-67.000
1764839607.111735,0,0,-971,-121.375
1764839607.1157274,0,0,415,51.875
1764839607.1197314,0,0,1686,210.750
1764839607.1237319,0,0,843,105.375
1764839607.1277483,1,1,-332,-41.500
1764839607.1317387,0,0,-996,-124.500
1764839607.1357179,0,0,405,50.625
1764839607.1397183,0,0,1906,238.250
1764839607.1437335,0,0,1083,135.375
1764839607.1477349,1,1,-220,-27.500
1764839607.151728,0,0,-1004,-125.500
1764839607.1557138,0,0,-5,-0.625
1764839607.1597586,0,0,1369,171.125
1764839607.1637747,0,0,746,93.250
1764839607.1677735,1,1,-332,-41.500
1764839607.1717837,0,0,-1024,-128.000
1764839607.175771,0,0,-402,-50.250
1764839607.17977,0,0,794,99.250
1764839607.1837745,0,0,368,46.000
1764839607.1877706,1,1,-469,-58.625
1764839607.191774,0,0,-1003,-125.375
1764839607.1957726,0,0,-572,-71.500
1764839607.1997695,0,0,457,57.125
1764839607.2037694,0,0,123,15.375
1764839607.207774,1,1,-566,-70.750
1764839607.2117813,0,0,-998,-124.750
1764839607.2157717,0,0,-624,-78.000
1764839607.21977,0,0,470,58.750
1764839607.2237716,0,0,191,23.875
1764839607.227846,1,1,-509,-63.625
1764839607.231791,0,0,-927,-115.875
1764839607.2357566,0,0,52,6.500
1764839607.2397544,0,0,1689,211.125
1764839607.2440488,0,0,1132,141.500
1764839607.247995,1,1,-138,-17.250
1764839607.2518046,0,0,-915,-114.375
1764839607.2557716,0,0,-23,-2.875
1764839607.2597287,0,0,1736,217.000
1764839607.2637331,0,0,1238,154.750
1764839607.2677274,1,1,-84,-10.500
1764839607.2717273,0,0,-915,-114.375
1764839607.2757275,0,0,-306,-38.250
1764839607.2797277,0,0,1337,167.125
1764839607.283728,0,0,992,124.000
1764839607.2877266,1,1,-168,-21.000
1764839607.2917361,0,0,-911,-113.875
1764839607.29573,0,0,-470,-58.750
1764839607.299729,0,0,1131,141.375
1764839607.303878,0,0,894,111.750
1764839607.3077173,1,1,-188,-23.500
1764839607.31172,0,0,-892,-111.500
1764839607.3157158,0,0,-338,-42.250
1764839607.3197157,0,0,1556,194.500
1764839607.3237166,0,0,1316,164.500
1764839607.3277113,1,1,16,2.000
1764839607.3317182,0,0,-872,-109.000
1764839607.3357143,0,0,-777,-97.125
1764839607.339715,0,0,684,85.500
1764839607.3437316,0,0,637,79.625
1764839607.347727,1,1,-277,-34.625
1764839607.351732,0,0,-883,-110.375
1764839607.3557296,0,0,-422,-52.750
1764839607.3597333,0,0,1500,187.500
1764839607.3637292,0,0,1360,170.000
1764839607.3677292,1,1,55,6.875
1764839607.3717291,0,0,-846,-105.750
1764839607.3757117,0,0,-653,-81.625
1764839607.3797133,0,0,1182,147.750
1764839607.383771,0,0,1187,148.375
1764839607.387726,1,1,4,0.500
1764839607.3917155,0,0,-835,-104.375
1764839607.3957117,0,0,-674,-84.250
1764839607.3997123,0,0,1134,141.750
1764839607.4037337,0,0,1172,146.500
1764839607.4077284,1,1,0,0.000
1764839607.411728,0,0,-837,-104.625
1764839607.4157124,0,0,-939,-117.375
1764839607.4197135,0,0,586,73.250
1764839607.4237318,0,0,762,95.250
1764839607.4278026,1,1,-168,-21.000
1764839607.4317396,0,0,-831,-103.875
1764839607.4357111,0,0,-801,-100.125
1764839607.4397137,0,0,904,113.000
1764839607.4437287,0,0,1085,135.625
1764839607.4477272,1,1,-3,-0.375
1764839607.4517283,0,0,-801,-100.125
1764839607.4557116,0,0,-1070,-133.750
1764839607.459712,0,0,105,13.125
1764839607.46373,0,0,369,46.125
1764839607.4677315,1,1,-347,-43.375
1764839607.4717321,0,0,-840,-105.000
1764839607.4757295,0,0,-988,-123.500
1764839607.4797275,0,0,326,40.750
1764839607.483726,0,0,650,81.250
1764839607.4877284,1,1,-173,-21.625
1764839607.4917362,0,0,-781,-97.625
1764839607.49573,0,0,-862,-107.750
1764839607.4997325,0,0,605,75.625
1764839607.503736,0,0,918,114.750
1764839607.507725,1,1,-38,-4.750
1764839607.5117283,0,0,-755,-94.375
1764839607.5157309,0,0,230,28.750
1764839607.5197291,0,0,605,75.625
1764839607.5237157,0,0,-177,-22.125
1764839607.5277107,1,1,-767,-95.875
1764839607.531716,0,0,-900,-112.500
1764839607.5357132,0,0,559,69.875
1764839607.539714,0,0,1005,125.625
1764839607.5437274,0,0,62,7.750
1764839607.5477264,1,1,-700,-87.500
1764839607.551726,0,0,-1102,-137.750
1764839607.555712,0,0,20,2.500
1764839607.5597112,0,0,577,72.125
1764839607.5637276,0,0,-114,-14.250
1764839607.567726,1,1,-700,-87.500
1764839607.5717318,0,0,-1123,-140.375
1764839607.5757284,0,0,-455,-56.875
1764839607.5797288,0,0,18,2.250
1764839607.5837312,0,0,-436,-54.500
1764839607.587723,1,1,-773,-96.625
1764839607.5917277,0,0,-878,-109.750
1764839607.5957286,0,0,562,70.250
1764839607.5997279,0,0,1181,147.625
1764839607.6037252,0,0,246,30.750
1764839607.6077242,1,1,-591,-73.875
1764839607.6117313,0,0,-1031,-128.875
1764839607.6157246,0,0,147,18.375
1764839607.6197264,0,0,872,109.000
1764839607.623731,0,0,132,16.500
1764839607.627803,1,1,-588,-73.500
1764839607.6317399,0,0,-909,-113.625
1764839607.6357105,0,0,542,67.750
1764839607.6397135,0,0,1347,168.375
1764839607.6437297,0,0,422,52.750
1764839607.6477287,1,1,-508,-63.500
1764839607.651721,0,0,-1033,-129.125
1764839607.6557083,0,0,18,2.250
1764839607.6597123,0,0,834,104.250
1764839607.6637294,0,0,157,19.625
1764839607.6677313,1,1,-564,-70.500
1764839607.6717308,0,0,-1081,-135.125
1764839607.675725,0,0,-569,-71.125
1764839607.6797252,0,0,113,14.125
1764839607.683728,0,0,-272,-34.000
1764839607.687729,1,1,-679,-84.875
1764839607.691735,0,0,-898,-112.250
1764839607.6957264,0,0,382,47.750
1764839607.699724,0,0,1311,163.875
1764839607.70373,0,0,486,60.750
1764839607.707731,1,1,-449,-56.125
1764839607.7117317,0,0,-958,-119.750
1764839607.7157218,0,0,346,43.250
1764839607.7197251,0,0,1496,187.000
1764839607.723724,0,0,695,86.875
1764839607.7277272,1,1,-351,-43.875
1764839607.7317338,0,0,-900,-112.500
1764839607.7357311,0,0,173,21.625
1764839607.7397344,0,0,1205,150.625
1764839607.7437215,0,0,494,61.750
1764839607.7477138,1,1,-431,-53.875
1764839607.7517242,0,0,-969,-121.125
1764839607.755726,0,0,-145,-18.125
1764839607.7597244,0,0,861,107.625
1764839607.763712,0,0,304,38.000
1764839607.7677078,1,1,-480,-60.000
1764839607.7717245,0,0,-943,-117.875
1764839607.7757251,0,0,7,0.875
1764839607.7797267,0,0,1138,142.250
1764839607.783726,0,0,524,65.500
1764839607.7877228,1,1,-398,-49.750
1764839607.7917285,0,0,-971,-121.375
1764839607.7957265,0,0,-564,-70.500
1764839607.7997258,0,0,380,47.500
1764839607.8037086,0,0,56,7.000
1764839607.8077052,1,1,-528,-66.000
1764839607.8117216,0,0,-911,-113.875
1764839607.8157246,0,0,-294,-36.750
1764839607.8197227,0,0,814,101.750
1764839607.8237236,0,0,368,46.000
1764839607.827793,1,1,-440,-55.000
1764839607.831736,0,0,-877,-109.625
1764839607.8357089,0,0,546,68.250
1764839607.839711,0,0,2332,291.500
1764839607.8437274,0,0,1541,192.625
1764839607.8477225,1,1,33,4.125
1764839607.8517177,0,0,-909,-113.625
1764839607.8557086,0,0,-536,-67.000
1764839607.8597271,0,0,673,84.125
1764839607.863727,0,0,383,47.875
1764839607.867722,1,1,-397,-49.625
1764839607.8717268,0,0,-856,-107.000
1764839607.8757217,0,0,169,21.125
1764839607.8797243,0,0,1883,235.375
1764839607.883726,0,0,1305,163.125
1764839607.8877244,1,1,-41,-5.125
1764839607.891722,0,0,-873,-109.125
1764839607.8957064,0,0,-474,-59.250
1764839607.8997107,0,0,842,105.250
1764839607.9037266,0,0,563,70.375
1764839607.9077256,1,1,-331,-41.375
1764839607.9117234,0,0,-903,-112.875
1764839607.915723,0,0,-1151,-143.875
1764839607.9197214,0,0,-325,-40.625
1764839607.9237235,0,0,-273,-34.125
1764839607.9277234,1,1,-641,-80.125
1764839607.9317234,0,0,-851,-106.375
1764839607.9357064,0,0,-456,-57.000
1764839607.9397147,0,0,871,108.875
1764839607.9437253,0,0,649,81.125
1764839607.9477108,1,1,-267,-33.375
1764839607.951724,0,0,-825,-103.125
1764839607.955722,0,0,-487,-60.875
1764839607.9597237,0,0,1024,128.000
1764839607.9637141,0,0,863,107.875
1764839607.9677067,1,1,-141,-17.625
1764839607.9717243,0,0,-781,-97.625
1764839607.9757197,0,0,-269,-33.625
1764839607.9797213,0,0,1636,204.500
1764839607.9837246,0,0,1446,180.750
1764839607.9877234,1,1,135,16.875
1764839607.9917274,0,0,-745,-93.125
1764839607.9957206,0,0,-657,-82.125
1764839607.99972,0,0,875,109.375
1764839608.003723,0,0,861,107.625
1764839608.0077195,1,1,-116,-14.500
1764839608.0117283,0,0,-771,-96.375
1764839608.015722,0,0,-917,-114.625
1764839608.0197177,0,0,237,29.625
1764839608.0237205,0,0,342,42.750
1764839608.0329792,0,0,-266,-33.250
1764839608.0357525,0,0,-266,-33.250
1764839608.0397277,0,0,1768,221.000
1764839608.043722,0,0,1688,211.000
1764839608.047704,1,1,275,34.375
1764839608.0517159,0,0,-724,-90.500
1764839608.0557075,0,0,-922,-115.250
1764839608.059716,0,0,649,81.125
1764839608.0637052,0,0,894,111.750
1764839608.067704,1,1,-27,-3.375
1764839608.0717201,0,0,-700,-87.500
1764839608.075724,0,0,-856,-107.000
1764839608.0797226,0,0,329,41.125
1764839608.0837243,0,0,504,63.000
1764839608.0877206,1,1,-262,-32.750
1764839608.0917263,0,0,-759,-94.875
1764839608.095723,0,0,-551,-68.875
1764839608.099726,0,0,1340,167.500
1764839608.103727,0,0,1526,190.750
1764839608.1077185,1,1,276,34.500
1764839608.1117237,0,0,-1142,-142.750
1764839608.1157224,0,0,-327,-40.875
1764839608.1197221,0,0,18,2.250
1764839608.1237266,0,0,-461,-57.625
1764839608.1277218,1,1,-765,-95.625
1764839608.1317265,0,0,-803,-100.375
1764839608.1357188,0,0,548,68.500
1764839608.1397212,0,0,870,108.750
1764839608.1437254,0,0,-18,-2.250
1764839608.1477292,1,1,-674,-84.250
1764839608.15173,0,0,-626,-78.250
1764839608.155722,0,0,1406,175.750
1764839608.159725,0,0,1847,230.875
1764839608.1637146,0,0,539,67.375
1764839608.1677053,1,1,-542,-67.750
1764839608.1717198,0,0,-849,-106.125
1764839608.175719,0,0,893,111.625
1764839608.1797187,0,0,1472,184.000
1764839608.1837137,0,0,388,48.500
1764839608.1877072,1,1,-553,-69.125
1764839608.1917229,0,0,-828,-103.500
1764839608.1957183,0,0,816,102.000
1764839608.1997192,0,0,1388,173.500
1764839608.2037253,0,0,336,42.000
1764839608.2077205,1,1,-580,-72.500
1764839608.211724,0,0,-797,-99.625
1764839608.2157195,0,0,1149,143.625
1764839608.2197177,0,0,1842,230.250
1764839608.2237234,0,0,617,77.125
1764839608.2277193,1,1,-509,-63.625
1764839608.2317932,0,0,-1167,-145.875
1764839608.2357323,0,0,-374,-46.750
1764839608.2397194,0,0,287,35.875
1764839608.2440176,0,0,-219,-27.375
1764839608.2479227,1,1,-690,-86.250
1764839608.2517517,0,0,-880,-110.000
1764839608.25572,0,0,498,62.250
1764839608.2597182,0,0,1193,149.125
1764839608.2637193,0,0,284,35.500
1764839608.2677178,1,1,-570,-71.250
1764839608.2717261,0,0,-969,-121.125
1764839608.2757187,0,0,347,43.375
1764839608.2797153,0,0,1155,144.375
1764839608.2837203,0,0,317,39.625
1764839608.2877183,1,1,-537,-67.125
1764839608.2917273,0,0,-922,-115.250
1764839608.2957218,0,0,560,70.000
1764839608.2997208,0,0,1492,186.500
1764839608.3037102,0,0,557,69.625
1764839608.3077018,1,1,-463,-57.875
1764839608.3117201,0,0,-985,-123.125
1764839608.315721,0,0,249,31.125
1764839608.3197188,0,0,1173,146.625
1764839608.3237197,0,0,379,47.375
1764839608.327715,1,1,-515,-64.375
1764839608.331715,0,0,-1006,-125.750
1764839608.3357036,0,0,70,8.750
1764839608.3397043,0,0,1025,128.125
1764839608.3437176,0,0,327,40.875
1764839608.3477268,1,1,-518,-64.750
1764839608.3517225,0,0,-963,-120.375
1764839608.3557043,0,0,84,10.500
1764839608.359704,0,0,1050,131.250
1764839608.3637202,0,0,356,44.500
1764839608.3677135,1,1,-504,-63.000
1764839608.3717136,0,0,-981,-122.625
1764839608.3757038,0,0,89,11.125
1764839608.3797028,0,0,1198,149.750
1764839608.3837216,0,0,515,64.375
1764839608.3877175,1,1,-432,-54.000
1764839608.3917215,0,0,-955,-119.375
1764839608.3957162,0,0,140,17.500
1764839608.3997164,0,0,1300,162.500
1764839608.4037125,0,0,601,75.125
1764839608.4077015,1,1,-405,-50.625
1764839608.4117053,0,0,-943,-117.875
1764839608.4156992,0,0,527,65.875
1764839608.4197028,0,0,2067,258.375
1764839608.4237206,0,0,1204,150.500
1764839608.4277189,1,1,-176,-22.000
1764839608.431802,0,0,-979,-122.375
1764839608.435732,0,0,222,27.750
1764839608.4397178,0,0,1801,225.125
1764839608.443711,0,0,1095,136.875
1764839608.4477026,1,1,-194,-24.250
1764839608.45172,0,0,-964,-120.500
1764839608.4557157,0,0,-115,-14.375
1764839608.459717,0,0,1244,155.500
1764839608.4637072,0,0,699,87.375
1764839608.4677033,1,1,-353,-44.125
1764839608.4717193,0,0,-968,-121.000
1764839608.4757166,0,0,-4,-0.500
1764839608.4797153,0,0,1515,189.375
1764839608.4837203,0,0,937,117.125
1764839608.4877152,1,1,-259,-32.375
1764839608.4917235,0,0,-984,-123.000
1764839608.4957135,0,0,-499,-62.375
1764839608.4997122,0,0,853,106.625
1764839608.5037177,0,0,535,66.875
1764839608.507717,1,1,-382,-47.750
1764839608.5117188,0,0,-949,-118.625
1764839608.5157132,0,0,-301,-37.625
1764839608.5197146,0,0,1210,151.250
1764839608.523717,0,0,827,103.375
1764839608.527716,1,1,-265,-33.125
1764839608.5317185,0,0,-930,-116.250
1764839608.535715,0,0,-189,-23.625
1764839608.539714,0,0,1497,187.125
1764839608.5437164,0,0,1097,137.125
1764839608.547713,1,1,-145,-18.125
1764839608.5517123,0,0,-925,-115.625
1764839608.5557,0,0,-143,-17.875
1764839608.5597696,0,0,1724,215.500
1764839608.563768,0,0,1324,165.500
1764839608.5677552,1,1,-45,-5.625
1764839608.5717602,0,0,-924,-115.500
1764839608.5757592,0,0,-345,-43.125
1764839608.5797582,0,0,1509,188.625
1764839608.5837474,0,0,1236,154.500
1764839608.5877383,1,1,-57,-7.125
1764839608.591757,0,0,-914,-114.250
1764839608.595762,0,0,-757,-94.625
1764839608.599762,0,0,677,84.625
1764839608.6037633,0,0,596,74.500
1764839608.607757,1,1,-329,-41.125
1764839608.6117647,0,0,-923,-115.375
1764839608.6157598,0,0,-745,-93.125
1764839608.6197581,0,0,775,96.875
1764839608.6237638,0,0,751,93.875
1764839608.6277552,1,1,-230,-28.750
1764839608.6318371,0,0,-882,-110.250
1764839608.635774,0,0,-587,-73.375
1764839608.6397624,0,0,1189,148.625
1764839608.6437545,0,0,1145,143.125
1764839608.6477394,1,1,-40,-5.000
1764839608.6517575,0,0,-856,-107.000
1764839608.6557562,0,0,-1039,-129.875
1764839608.6597214,0,0,250,31.250
1764839608.663708,0,0,395,49.375
1764839608.6677012,1,1,-375,-46.875
1764839608.6717143,0,0,-878,-109.750
1764839608.675712,0,0,-812,-101.500
1764839608.679713,0,0,675,84.375
1764839608.6837192,0,0,794,99.250
1764839608.6877136,1,1,-170,-21.250
1764839608.6917148,0,0,-831,-103.875
1764839608.6957114,0,0,-513,-64.125
1764839608.6997125,0,0,1702,212.750
1764839608.7037168,0,0,1836,229.500
1764839608.707724,1,1,-737,-92.125
1764839608.7117226,0,0,-793,-99.125
1764839608.715698,0,0,1056,132.000
1764839608.7196975,0,0,1294,161.750
1764839608.7237155,0,0,114,14.250
1764839608.7277153,1,1,-775,-96.875
1764839608.7317128,0,0,-1034,-129.250
1764839608.7356966,0,0,352,44.000
1764839608.7396953,0,0,697,87.125
1764839608.7437162,0,0,-160,-20.000
1764839608.747714,1,1,-804,-100.500
1764839608.751719,0,0,-1004,-125.500
1764839608.7557132,0,0,392,49.000
1764839608.7597132,0,0,783,97.875
1764839608.7637122,0,0,-93,-11.625
1764839608.767713,1,1,-771,-96.375
1764839608.7717214,0,0,-1058,-132.250
1764839608.7757146,0,0,120,15.000
1764839608.7797117,0,0,532,66.500
1764839608.7837145,0,0,-218,-27.250
1764839608.7877142,1,1,-784,-98.000
1764839608.7917166,0,0,-752,-94.000
1764839608.7957134,0,0,1309,163.625
1764839608.7997127,0,0,1816,227.000
1764839608.8037028,0,0,495,61.875
1764839608.8076947,1,1,-629,-78.625
1764839608.8117087,0,0,-1152,-144.000
1764839608.8157146,0,0,300,37.500
1764839608.8197165,0,0,968,121.000
1764839608.8237145,0,0,109,13.625
1764839608.8277102,1,1,-671,-83.875
1764839608.8317976,0,0,-891,-111.375
1764839608.8357294,0,0,804,100.500
1764839608.839717,0,0,1413,176.625
1764839608.8437037,0,0,323,40.375
1764839608.8476942,1,1,-643,-80.375
1764839608.8517127,0,0,-846,-105.750
1764839608.8557117,0,0,1127,140.875
1764839608.8597174,0,0,1865,233.125
1764839608.8637052,0,0,608,76.000
1764839608.867694,1,1,-569,-71.125
1764839608.8717105,0,0,-1026,-128.250
1764839608.8757083,0,0,551,68.875
1764839608.8797133,0,0,1339,167.375
1764839608.8837168,0,0,347,43.375
1764839608.8877075,1,1,-622,-77.750
1764839608.8917143,0,0,-1095,-136.875
1764839608.8957095,0,0,368,46.000
1764839608.8997126,0,0,1304,163.000
1764839608.9037137,0,0,403,50.375
1764839608.9077075,1,1,-573,-71.625
1764839608.9117043,0,0,-1073,-134.125
1764839608.9156933,0,0,360,45.000
1764839608.919695,0,0,1315,164.375
1764839608.9237285,0,0,421,52.625
1764839608.9277155,1,1,-570,-71.250
1764839608.9317007,0,0,-1021,-127.625
1764839608.9356918,0,0,601,75.125
1764839608.9396958,0,0,1668,208.500
1764839608.9437106,0,0,661,82.625
1764839608.9477105,1,1,-497,-62.125
1764839608.9517033,0,0,-1188,-148.500
1764839608.9556925,0,0,-333,-41.625
1764839608.9596932,0,0,594,74.250
1764839608.9637148,0,0,35,4.375
1764839608.9677122,1,1,-664,-83.000
1764839608.971711,0,0,-1044,-130.500
1764839608.9756932,0,0,183,22.875
1764839608.9796927,0,0,1210,151.250
1764839608.983718,0,0,418,52.250
1764839608.9877143,1,1,-556,-69.500
1764839608.9917154,0,0,-1174,-146.750
1764839608.9957068,0,0,-644,-80.500
1764839608.9997072,0,0,296,37.000
1764839609.0037127,0,0,-84,-10.500
1764839609.0077102,1,1,-670,-83.750
1764839609.0117157,0,0,-1074,-134.250
1764839609.0157065,0,0,-471,-58.875
1764839609.019708,0,0,476,59.500
1764839609.0237107,0,0,33,4.125
1764839609.027708,1,1,-632,-79.000
1764839609.0369952,0,0,-401,-50.125
1764839609.0397334,0,0,601,75.125
1764839609.0437093,0,0,146,18.250
1764839609.0476968,1,1,-578,-72.250
1764839609.0517101,0,0,-990,-123.750
1764839609.0557108,0,0,-82,-10.250
1764839609.0597105,0,0,1171,146.375
1764839609.063709,0,0,591,73.875
1764839609.0677066,1,1,-402,-50.250
1764839609.071712,0,0,-986,-123.250
1764839609.0757103,0,0,-195,-24.375
1764839609.079712,0,0,1137,142.125
1764839609.0837145,0,0,636,79.500
1764839609.087705,1,1,-360,-45.000
1764839609.091714,0,0,-915,-114.375
1764839609.095707,0,0,167,20.875
1764839609.0997097,0,0,1685,210.625
1764839609.1037085,0,0,1031,128.875
1764839609.1077194,1,1,-227,-28.375
1764839609.1117103,0,0,-984,-123.000
1764839609.1156936,0,0,-501,-62.625
1764839609.1196923,0,0,786,98.250
1764839609.1237104,0,0,458,57.250
1764839609.1277065,1,1,-418,-52.250
1764839609.1317046,0,0,-957,-119.625
1764839609.1356921,0,0,-410,-51.250
1764839609.1396937,0,0,943,117.875
1764839609.1437097,0,0,596,74.500
1764839609.1477072,1,1,-362,-45.250
1764839609.1517112,0,0,-945,-118.125
1764839609.1557093,0,0,-371,-46.375
1764839609.1597087,0,0,1149,143.625
1764839609.163712,0,0,820,102.500
1764839609.167704,1,1,-247,-30.875
1764839609.1717117,0,0,-918,-114.750
1764839609.1757045,0,0,-868,-108.500
1764839609.179714,0,0,188,23.500
1764839609.1837137,0,0,93,11.625
1764839609.187707,1,1,-545,-68.125
1764839609.1917095,0,0,-903,-112.875
1764839609.1957061,0,0,-191,-23.875
1764839609.1997113,0,0,1610,201.250
1764839609.2037122,0,0,1283,160.375
1764839609.2077107,1,1,-23,-2.875
1764839609.2117088,0,0,-860,-107.500
1764839609.2157059,0,0,-672,-84.000
1764839609.2197046,0,0,731,91.375
1764839609.2237117,0,0,628,78.500
1764839609.2277076,1,1,-290,-36.250
1764839609.2317085,0,0,-864,-108.000
1764839609.2357776,0,0,-399,-49.875
1764839609.23972,0,0,1381,172.625
1764839609.2440038,0,0,1217,152.125
1764839609.247948,1,1,-15,-1.875
1764839609.2517452,0,0,-828,-103.500
1764839609.2557049,0,0,-675,-84.375
1764839609.259706,0,0,845,105.625
1764839609.2637072,0,0,819,102.375
1764839609.267708,1,1,-184,-23.000
1764839609.2717109,0,0,-844,-105.500
1764839609.2757025,0,0,-855,-106.875
1764839609.2797017,0,0,660,82.500
1764839609.2837067,0,0,782,97.750
1764839609.2877057,1,1,-149,-18.625
1764839609.2917023,0,0,-794,-99.250
1764839609.2957027,0,0,-415,-51.875
1764839609.2997017,0,0,1858,232.250
1764839609.303703,0,0,1933,241.625
1764839609.3077838,1,1,-712,-89.000
1764839609.311877,0,0,-554,-69.250
1764839609.315877,0,0,1752,219.000
1764839609.3197207,0,0,1924,240.500
1764839609.3237064,0,0,436,54.500
1764839609.327688,1,1,-711,-88.875
1764839609.3317037,0,0,-888,-111.000
1764839609.3357058,0,0,769,96.125
1764839609.3397067,0,0,1036,129.500
1764839609.343695,0,0,-7,-0.875
1764839609.3476858,1,1,-788,-98.500
1764839609.3517082,0,0,-753,-94.125
1764839609.3557057,0,0,1216,152.000
1764839609.3597076,0,0,1513,189.125
1764839609.3637092,0,0,249,31.125
1764839609.3677032,1,1,-739,-92.375
1764839609.3717093,0,0,-1001,-125.125
1764839609.375705,0,0,583,72.875
1764839609.3797066,0,0,992,124.000
1764839609.3837068,0,0,12,1.500
1764839609.387703,1,1,-767,-95.875
1764839609.3917065,0,0,-1159,-144.875
1764839609.395704,0,0,-295,-36.875
1764839609.3997047,0,0,66,8.250
1764839609.4037085,0,0,-493,-61.625
1764839609.4077024,1,1,-870,-108.750
1764839609.4117084,0,0,-1038,-129.750
1764839609.4157047,0,0,97,12.125
1764839609.419704,0,0,519,64.875
1764839609.4236972,0,0,-218,-27.250
1764839609.4276876,1,1,-786,-98.250
1764839609.431705,0,0,-1036,-129.500
1764839609.4357898,0,0,183,22.875
1764839609.439721,0,0,695,86.875
1764839609.443706,0,0,-84,-10.500
1764839609.44769,1,1,-727,-90.875
1764839609.4516897,0,0,-818,-102.250
1764839609.4556851,0,0,1215,151.875
1764839609.459693,0,0,1915,239.375
1764839609.4636884,0,0,641,80.125
1764839609.4676876,1,1,-534,-66.750
1764839609.4717023,0,0,-908,-113.500
1764839609.475702,0,0,1024,128.000
1764839609.4796996,0,0,1852,231.500
1764839609.4837055,0,0,657,82.125
1764839609.4877036,1,1,-507,-63.375
1764839609.4917092,0,0,-1245,-155.625
1764839609.495701,0,0,-743,-92.875
1764839609.4997008,0,0,-160,-20.000
1764839609.5037062,0,0,-522,-65.250
1764839609.5077064,1,1,-833,-104.125
1764839609.5117123,0,0,-842,-105.250
1764839609.5156848,0,0,1151,143.875
1764839609.519686,0,0,2053,256.625
1764839609.523702,0,0,806,100.750
1764839609.527703,1,1,-464,-58.000
1764839609.5317004,0,0,-1039,-129.875
1764839609.535684,0,0,549,68.625
1764839609.5396845,0,0,1531,191.375
1764839609.5437012,0,0,562,70.250
1764839609.5477052,1,1,-507,-63.375
1764839609.551699,0,0,-1020,-127.500
1764839609.555688,0,0,291,36.375
1764839609.5596845,0,0,1181,147.625
1764839609.5637028,0,0,334,41.750
1764839609.567705,1,1,-589,-73.625
1764839609.5717113,0,0,-1064,-133.000
1764839609.5757015,0,0,195,24.375
1764839609.579703,0,0,1231,153.875
1764839609.5837033,0,0,441,55.125
1764839609.587699,1,1,-524,-65.500
1764839609.5917056,0,0,-1003,-125.375
1764839609.595703,0,0,516,64.500
1764839609.599705,0,0,1694,211.750
1764839609.6037023,0,0,757,94.625
1764839609.6076992,1,1,-426,-53.250
1764839609.6117072,0,0,-1085,-135.625
1764839609.6157036,0,0,-151,-18.875
1764839609.619702,0,0,895,111.875
1764839609.6237028,0,0,281,35.125
1764839609.6276999,1,1,-562,-70.250
1764839609.6317015,0,0,-1015,-126.875
1764839609.6357782,0,0,70,8.750
1764839609.6397183,0,0,1162,145.250
1764839609.6436996,0,0,454,56.750
1764839609.647683,1,1,-515,-64.375
1764839609.6516993,0,0,-1060,-132.500
1764839609.6557,0,0,-307,-38.375
1764839609.659706,0,0,732,91.500
1764839609.6636946,0,0,220,27.500
1764839609.667683,1,1,-572,-71.500
1764839609.671699,0,0,-1041,-130.125
1764839609.6757028,0,0,-178,-22.250
1764839609.6797004,0,0,1056,132.000
1764839609.6837032,0,0,507,63.375
1764839609.6876972,1,1,-446,-55.750
1764839609.6917043,0,0,-1003,-125.375
1764839609.6956985,0,0,-384,-48.000
1764839609.6997006,0,0,682,85.250
1764839609.7037048,0,0,238,29.750
1764839609.707702,1,1,-555,-69.375
1764839609.711702,0,0,-1023,-127.875
1764839609.7156963,0,0,-106,-13.250
1764839609.7196996,0,0,1378,172.250
1764839609.7237053,0,0,839,104.875
1764839609.7277007,1,1,-291,-36.375
1764839609.7317,0,0,-976,-122.000
1764839609.7356954,0,0,-247,-30.875
1764839609.7396986,0,0,1207,150.875
1764839609.7436974,0,0,758,94.750
1764839609.7476995,1,1,-311,-38.875
1764839609.751704,0,0,-959,-119.875
1764839609.7556965,0,0,-438,-54.750
1764839609.7597425,0,0,835,104.375
1764839609.7637472,0,0,486,60.750
1764839609.7677417,1,1,-421,-52.625
1764839609.7717505,0,0,-954,-119.250
1764839609.7757397,0,0,-88,-11.000
1764839609.77974,0,0,1677,209.625
1764839609.7837431,0,0,1221,152.625
1764839609.7877467,1,1,-92,-11.500
1764839609.7917464,0,0,-927,-115.875
1764839609.7957256,0,0,-172,-21.500
1764839609.799723,0,0,1703,212.875
1764839609.8037302,0,0,1316,164.500
1764839609.807721,1,1,-35,-4.375
1764839609.811726,0,0,-922,-115.250
1764839609.815725,0,0,-566,-70.750
1764839609.819719,0,0,995,124.375
1764839609.8237436,0,0,797,99.625
1764839609.8277447,1,1,-250,-31.250
1764839609.831764,0,0,-918,-114.750
1764839609.8358204,0,0,-342,-42.750
1764839609.8397572,0,0,1502,187.750
1764839609.8437364,0,0,1253,156.625
1764839609.8477223,1,1,-44,-5.500
1764839609.851742,0,0,-908,-113.500
1764839609.855743,0,0,-753,-94.125
1764839609.8597047,0,0,753,94.125
1764839609.863691,0,0,693,86.625
1764839609.8676808,1,1,-277,-34.625
1764839609.8716981,0,0,-902,-112.750
1764839609.8756998,0,0,-596,-74.500
1764839609.8796988,0,0,1036,129.500
1764839609.883699,0,0,948,118.500
1764839609.8876946,1,1,-160,-20.000
1764839609.891701,0,0,-879,-109.875
1764839609.8956978,0,0,-638,-79.750
1764839609.8996954,0,0,925,115.625
1764839609.9037018,0,0,-189,-23.625
1764839609.9077067,1,1,-894,-111.750
1764839609.9117098,0,0,-942,-117.750
1764839609.9157023,0,0,354,44.250
1764839609.919698,0,0,462,57.750
1764839609.9236908,0,0,-352,-44.000
1764839609.9276788,1,1,-887,-110.875
1764839609.931681,0,0,-1170,-146.250
1764839609.9356828,0,0,-173,-21.625
1764839609.9396791,0,0,83,10.375
1764839609.9436812,0,0,-486,-60.750
1764839609.9476788,1,1,-857,-107.125
1764839609.951694,0,0,-796,-99.500
1764839609.9556932,0,0,685,85.625
1764839609.9597564,0,0,871,108.875
1764839609.9637458,0,0,-97,-12.125
1764839609.9677424,1,1,-784,-98.000
1764839609.9717462,0,0,-868,-108.500
1764839609.9757535,0,0,505,63.125
1764839609.9797428,0,0,730,91.250
1764839609.9837465,0,0,-166,-20.750
1764839609.9877403,1,1,-792,-99.000
1764839609.9917595,0,0,-820,-102.500
1764839609.9957373,0,0,813,101.625
1764839609.999752,0,0,1133,141.625
1764839610.0037458,0,0,83,10.375
1764839610.0077412,1,1,-721,-90.125
1764839610.0117414,0,0,-743,-92.875
1764839610.015733,0,0,1289,161.125
1764839610.0197213,0,0,1720,215.000
1764839610.0237477,0,0,434,54.250
1764839610.0277424,1,1,-632,-79.000
1764839610.03176,0,0,-817,-102.125
1764839610.0421371,0,0,1301,162.625
1764839610.0440383,0,0,202,25.250
1764839610.0477703,1,1,-691,-86.375
1764839610.0517461,0,0,-1078,-134.750
1764839610.0557191,0,0,279,34.875
1764839610.0596838,0,0,864,108.000
1764839610.0636988,0,0,33,4.125
1764839610.0676978,1,1,-687,-85.875
1764839610.0717065,0,0,-917,-114.625
1764839610.0756817,0,0,531,66.375
1764839610.0796773,0,0,1070,133.750
1764839610.0836961,0,0,121,15.125
1764839610.087693,1,1,-685,-85.625
1764839610.0917015,0,0,-1012,-126.500
1764839610.095694,0,0,291,36.375
1764839610.0996912,0,0,900,112.500
1764839610.103693,0,0,64,8.000
1764839610.1076908,1,1,-681,-85.125
1764839610.1116955,0,0,-908,-113.500
1764839610.1156917,0,0,977,122.125
1764839610.119695,0,0,1838,229.750
1764839610.1236982,0,0,672,84.000
1764839610.127692,1,1,-495,-61.875
1764839610.1316967,0,0,-965,-120.625
1764839610.1356914,0,0,890,111.250
1764839610.1396947,0,0,1851,231.375
1764839610.143692,0,0,718,89.750
1764839610.1476872,1,1,-477,-59.625
1764839610.1516914,0,0,-1032,-129.000
1764839610.1556916,0,0,443,55.375
1764839610.1597373,0,0,1363,170.375
1764839610.1637404,0,0,441,55.125
1764839610.167733,1,1,-549,-68.625
1764839610.171739,0,0,-1050,-131.250
1764839610.1757338,0,0,356,44.500
1764839610.179736,0,0,1343,167.875
1764839610.1837363,0,0,463,57.875
1764839610.1877387,1,1,-540,-67.500
1764839610.1917412,0,0,-1026,-128.250
1764839610.1957204,0,0,615,76.875
1764839610.1997185,0,0,1762,220.250
1764839610.2037387,0,0,765,95.625
1764839610.2077367,1,1,-443,-55.375
1764839610.211733,0,0,-1100,-137.500
1764839610.2157152,0,0,54,6.750
1764839610.219722,0,0,1130,141.250
1764839610.2237492,0,0,404,50.500
1764839610.2277374,1,1,-541,-67.625
1764839610.231738,0,0,-1092,-136.500
1764839610.2357328,0,0,-11,-1.375
1764839610.2398338,0,0,1116,139.500
1764839610.2440095,0,0,435,54.375
1764839610.2479765,1,1,-508,-63.500
1764839610.251778,0,0,-1023,-127.875
1764839610.255734,0,0,191,23.875
1764839610.2596917,0,0,1360,170.000
1764839610.2636955,0,0,579,72.375
1764839610.2676892,1,1,-492,-61.500
1764839610.2716944,0,0,-1043,-130.375
1764839610.275688,0,0,506,63.250
1764839610.2796881,0,0,1990,248.750
1764839610.2836874,0,0,1082,135.250
1764839610.2876859,1,1,-294,-36.750
1764839610.2916906,0,0,-1060,-132.500
1764839610.2956831,0,0,60,7.500
1764839610.2996836,0,0,1403,175.375
1764839610.3038952,0,0,714,89.250
1764839610.307682,1,1,-420,-52.500
1764839610.3116813,0,0,-1066,-133.250
1764839610.3156743,0,0,261,32.625
1764839610.319683,0,0,1959,244.875
1764839610.323676,0,0,1206,150.750
1764839610.327674,1,1,-206,-25.750
1764839610.3316798,0,0,-1097,-137.125
1764839610.3356752,0,0,-566,-70.750
1764839610.3396702,0,0,769,96.125
1764839610.343674,0,0,418,52.250
1764839610.3476763,1,1,-476,-59.500
1764839610.3516922,0,0,-1025,-128.125
1764839610.3556776,0,0,193,24.125
1764839610.3596766,0,0,2003,250.375
1764839610.3636749,0,0,1321,165.125
1764839610.3676841,1,1,-159,-19.875
1764839610.371691,0,0,-1066,-133.250
1764839610.3756943,0,0,-661,-82.625
1764839610.3796954,0,0,754,94.250
1764839610.3837056,0,0,486,60.750
1764839610.3876905,1,1,-439,-54.875
1764839610.3916965,0,0,-1019,-127.375
1764839610.3956923,0,0,-258,-32.250
1764839610.3997037,0,0,1382,172.750
1764839610.403695,0,0,955,119.375
1764839610.4076881,1,1,-263,-32.875
1764839610.411688,0,0,-1004,-125.500
1764839610.4156885,0,0,-161,-20.125
1764839610.419678,0,0,1722,215.250
1764839610.4236934,0,0,1293,161.625
1764839610.427692,1,1,-105,-13.125
1764839610.4316926,0,0,-1012,-126.500
1764839610.4356868,0,0,-727,-90.875
1764839610.4397836,0,0,858,107.250
1764839610.4436982,0,0,714,89.250
1764839610.4476745,1,1,-310,-38.750
1764839610.4516904,0,0,-985,-123.125
1764839610.455691,0,0,-442,-55.250
1764839610.4596927,0,0,1453,181.625
1764839610.4636838,0,0,1230,153.750
1764839610.4676702,1,1,-83,-10.375
1764839610.4716928,0,0,-958,-119.750
1764839610.4756916,0,0,-960,-120.000
1764839610.479704,0,0,278,34.750
1764839610.4836962,0,0,262,32.750
1764839610.487691,1,1,-516,-64.500
1764839610.4916878,0,0,-994,-124.250
1764839610.495685,0,0,-600,-75.000
1764839610.499677,0,0,1155,144.375
1764839610.5036936,0,0,-135,-16.875
1764839610.5076919,1,1,-927,-115.875
1764839610.5116928,0,0,-801,-100.125
1764839610.5156882,0,0,726,90.750
1764839610.519698,0,0,759,94.875
1764839610.523696,0,0,-252,-31.500
1764839610.5276892,1,1,-917,-114.625
1764839610.5316975,0,0,-493,-61.625
1764839610.5356987,0,0,1514,189.250
1764839610.5396893,0,0,1497,187.125
1764839610.5436945,0,0,107,13.375
1764839610.5476913,1,1,-878,-109.750
1764839610.5516965,0,0,-983,-122.875
1764839610.5556731,0,0,513,64.125
1764839610.5596755,0,0,706,88.250
1764839610.5636892,0,0,-236,-29.500
1764839610.5677001,1,1,-898,-112.250
1764839610.571697,0,0,-1037,-129.625
1764839610.5756874,0,0,212,26.500
1764839610.5796895,0,0,437,54.625
1764839610.583704,0,0,-359,-44.875
1764839610.5876935,1,1,-905,-113.125
1764839610.5916944,0,0,-1051,-131.375
1764839610.595696,0,0,184,23.000
1764839610.5996995,0,0,468,58.500
1764839610.6036825,0,0,-320,-40.000
1764839610.6076849,1,1,-874,-109.250
1764839610.6116853,0,0,-1185,-148.125
1764839610.61569,0,0,-299,-37.375
1764839610.6196885,0,0,45,5.625
1764839610.6236882,0,0,-512,-64.000
1764839610.6276715,1,1,-884,-110.500
1764839610.631686,0,0,-905,-113.125
1764839610.6356907,0,0,674,84.250
1764839610.639775,0,0,1085,135.625
1764839610.6436973,0,0,71,8.875
1764839610.647673,1,1,-737,-92.125
1764839610.6516867,0,0,-1003,-125.375
1764839610.6556876,0,0,353,44.125
1764839610.659691,0,0,827,103.375
1764839610.6636791,0,0,-42,-5.250
1764839610.6676698,1,1,-741,-92.625
1764839610.671689,0,0,-866,-108.250
1764839610.6756892,0,0,785,98.125
1764839610.6797,0,0,1305,163.125
1764839610.6836946,0,0,230,28.750
1764839610.6876872,1,1,-682,-85.250
1764839610.6916926,0,0,-1078,-134.750
1764839610.6956954,0,0,4,0.500
1764839610.6996903,0,0,527,65.875
1764839610.7036917,0,0,-180,-22.500
1764839610.7077022,1,0,-767,-95.875
1764839610.7116976,0,0,-969,-121.125
1764839610.7156758,0,0,588,73.500
1764839610.7196836,0,0,1308,163.500
1764839610.7236903,0,0,325,40.625
1764839610.7276862,1,1,-604,-75.500
1764839610.7316856,0,0,-982,-122.750
1764839610.73568,0,0,494,61.750
1764839610.739674,0,0,1246,155.750
1764839610.743702,0,0,305,38.125
1764839610.7476904,1,1,-609,-76.125
1764839610.7517018,0,0,-1036,-129.500
1764839610.7556849,0,0,302,37.750
1764839610.759691,0,0,1113,139.125
1764839610.7636907,0,0,262,32.750
1764839610.7676914,1,1,-603,-75.375
1764839610.771688,0,0,-1020,-127.500
1764839610.7756941,0,0,290,36.250
1764839610.779684,0,0,1166,145.750
1764839610.7836928,0,0,329,41.125
1764839610.787686,1,1,-573,-71.625
1764839610.7917008,0,0,-1027,-128.375
1764839610.7956853,0,0,242,30.250
1764839610.7996871,0,0,1185,148.125
1764839610.8036785,0,0,377,47.125
1764839610.8076694,1,1,-549,-68.625
1764839610.811688,0,0,-1027,-128.375
1764839610.815684,0,0,171,21.375
1764839610.8196843,0,0,1177,147.125
1764839610.8236988,0,0,412,51.500
1764839610.8276842,1,1,-524,-65.500
1764839610.8316913,0,0,-963,-120.375
1764839610.8356836,0,0,285,35.625
1764839610.8397734,0,0,1267,158.375
1764839610.8436952,0,0,452,56.500
1764839610.847674,1,1,-530,-66.250
1764839610.851684,0,0,-1092,-136.500
1764839610.8556974,0,0,-424,-53.000
1764839610.8596861,0,0,474,59.250
1764839610.8636785,0,0,2,0.250
1764839610.8676703,1,1,-646,-80.750
1764839610.8716857,0,0,-987,-123.375
1764839610.8756866,0,0,-51,-6.375
1764839610.8796833,0,0,922,115.250
1764839610.883687,0,0,292,36.500
1764839610.8876815,1,1,-551,-68.875
1764839610.8916914,0,0,-975,-121.875
1764839610.8956864,0,0,249,31.125
1764839610.899687,0,0,1505,188.125
1764839610.9036875,0,0,748,93.500
1764839610.9076831,1,1,-380,-47.500
1764839610.9116895,0,0,-994,-124.250
1764839610.9156835,0,0,90,11.250
1764839610.9196863,0,0,1441,180.125
1764839610.9236877,0,0,777,97.125
1764839610.927681,1,1,-345,-43.125
1764839610.93169,0,0,-971,-121.375
1764839610.9356854,0,0,214,26.750
1764839610.9396849,0,0,1775,221.875
1764839610.9436905,0,0,1079,134.875
1764839610.9476836,1,1,-219,-27.375
1764839610.9516804,0,0,-980,-122.500
1764839610.9556708,0,0,-24,-3.000
1764839610.9597137,0,0,1500,187.500
1764839610.9637303,0,0,922,115.250
1764839610.9677253,1,1,-273,-34.125
1764839610.971733,0,0,-993,-124.125
1764839610.9757288,0,0,-517,-64.625
1764839610.979728,0,0,732,91.500
1764839610.9837294,0,0,403,50.375
1764839610.9877248,1,1,-454,-56.750
1764839610.991731,0,0,-994,-124.250
1764839610.9957242,0,0,-1021,-127.625
1764839610.9997292,0,0,-113,-14.125
1764839611.0037327,0,0,-197,-24.625
1764839611.0077271,1,1,-688,-86.000
1764839611.0117388,0,0,-970,-121.250
1764839611.0157368,0,0,-395,-49.375
1764839611.0197303,0,0,986,123.250
1764839611.0237172,0,0,657,82.125
1764839611.0277095,1,1,-334,-41.750
1764839611.0317223,0,0,-930,-116.250
1764839611.0357237,0,0,-627,-78.375
1764839611.046171,1,1,-389,-48.625
1764839611.0480661,0,0,-389,-48.625
1764839611.0517251,0,0,-891,-111.375
1764839611.0557077,0,0,-63,-7.875
1764839611.0596707,0,0,1863,232.875
1764839611.06369,0,0,1491,186.375
1764839611.0676873,1,1,67,8.375
1764839611.071682,0,0,-879,-109.875
1764839611.075666,0,0,-513,-64.125
1764839611.0796635,0,0,1310,163.750
1764839611.0836856,0,0,1171,146.375
1764839611.0876856,1,1,-31,-3.875
1764839611.0916913,0,0,-843,-105.375
1764839611.0956905,0,0,-666,-83.250
1764839611.0996819,0,0,748,93.500
1764839611.1036887,0,0,-282,-35.250
1764839611.1076844,1,1,-880,-110.000
1764839611.111697,0,0,-729,-91.125
1764839611.1156833,0,0,750,93.750
1764839611.1196814,0,0,750,93.750
1764839611.1236827,0,0,-213,-26.625
1764839611.1276915,1,1,-848,-106.000
1764839611.131689,0,0,-651,-81.375
1764839611.1356978,0,0,1095,136.875
1764839611.1396952,0,0,1144,143.000
1764839611.1436758,0,0,4,0.500
1764839611.1476638,1,1,-799,-99.875
1764839611.1516876,0,0,-592,-74.000
1764839611.155685,0,0,1324,165.500
1764839611.1596844,0,0,1395,174.375
1764839611.163673,0,0,133,16.625
1764839611.167674,1,1,-775,-96.875
1764839611.171681,0,0,-858,-107.250
1764839611.175683,0,0,642,80.250
1764839611.179684,0,0,837,104.625
1764839611.183684,0,0,-122,-15.250
1764839611.187681,1,1,-804,-100.500
1764839611.1916828,0,0,-642,-80.250
1764839611.1956825,0,0,1278,159.750
1764839611.1996822,0,0,1463,182.875
1764839611.2036808,0,0,194,24.250
1764839611.207679,1,1,-754,-94.250
1764839611.2116888,0,0,-832,-104.000
1764839611.2156827,0,0,978,122.250
1764839611.219683,0,0,1303,162.875
1764839611.223685,0,0,157,19.625
1764839611.227678,1,1,-735,-91.875
1764839611.231683,0,0,-953,-119.125
1764839611.235682,0,0,538,67.250
1764839611.2396805,0,0,900,112.500
1764839611.2439618,0,0,-46,-5.750
1764839611.2479084,0,0,-773,-96.625
1764839611.2517097,0,0,-674,-84.250
1764839611.2556784,0,0,1461,182.625
1764839611.2596798,0,0,1866,233.250
1764839611.2636824,0,0,473,59.125
1764839611.2676778,1,1,-670,-83.750
1764839611.2716742,0,0,-1127,-140.875
1764839611.2756727,0,0,1,0.125
1764839611.2796757,0,0,468,58.500
1764839611.2836833,0,0,-241,-30.125
1764839611.2876832,1,1,-799,-99.875
1764839611.2916756,0,0,-967,-120.875
1764839611.2956717,0,0,384,48.000
1764839611.299673,0,0,873,109.125
1764839611.303829,0,0,-11,-1.375
1764839611.3076699,1,1,-742,-92.750
1764839611.3116796,0,0,-955,-119.375
1764839611.3156605,0,0,614,76.750
1764839611.319662,0,0,1236,154.500
1764839611.323662,0,0,238,29.750
1764839611.327672,1,1,-662,-82.750
1764839611.3316743,0,0,-843,-105.375
1764839611.3356726,0,0,1287,160.875
1764839611.33966,0,0,2090,261.250
1764839611.3436654,0,0,760,95.000
1764839611.3476636,1,1,-523,-65.375
1764839611.3516734,0,0,-942,-117.750
1764839611.3556595,0,0,1063,132.875
1764839611.359662,0,0,1968,246.000
1764839611.3636672,0,0,735,91.875
1764839611.3676646,1,1,-518,-64.750
1764839611.3716662,0,0,-1073,-134.125
1764839611.3756623,0,0,379,47.375
1764839611.3796623,0,0,1248,156.000
1764839611.3836777,0,0,341,42.625
1764839611.3876793,1,1,-615,-76.875
1764839611.3916824,0,0,-1016,-127.000
1764839611.3956778,0,0,308,38.500
1764839611.3996763,0,0,1107,138.375
1764839611.4036803,0,0,236,29.500
1764839611.4076765,1,1,-663,-82.875
1764839611.4116855,0,0,-1119,-139.875
1764839611.4156804,0,0,12,1.500
1764839611.4196775,0,0,877,109.625
1764839611.4236777,0,0,153,19.125
1764839611.4276743,1,1,-659,-82.375
1764839611.4316816,0,0,-1047,-130.875
1764839611.4356768,0,0,497,62.125
1764839611.4396787,0,0,1626,203.250
1764839611.4437609,0,0,680,85.000
1764839611.4476933,1,1,-478,-59.750
1764839611.4516783,0,0,-1033,-129.125
1764839611.455663,0,0,684,85.500
1764839611.4596646,0,0,1978,247.250
1764839611.4636598,0,0,945,118.125
1764839611.4676595,1,1,-392,-49.000
1764839611.4716613,0,0,-1066,-133.250
1764839611.4756618,0,0,691,86.375
1764839611.4796615,0,0,2200,275.000
1764839611.4836807,0,0,1171,146.375
1764839611.4876857,1,1,-297,-37.125
1764839611.491681,0,0,-1135,-141.875
1764839611.495679,0,0,-73,-9.125
1764839611.4996777,0,0,1178,147.250
1764839611.503687,0,0,515,64.375
1764839611.507673,1,1,-516,-64.500
1764839611.51168,0,0,-1114,-139.250
1764839611.5156748,0,0,-369,-46.125
1764839611.5196831,0,0,685,85.625
1764839611.523679,0,0,173,21.625
1764839611.527672,1,1,-642,-80.250
1764839611.5316622,0,0,-1027,-128.375
1764839611.5356693,0,0,138,17.250
1764839611.5396612,0,0,1370,171.250
1764839611.5436628,0,0,636,79.500
1764839611.5476604,1,1,-489,-61.125
1764839611.5516772,0,0,-1170,-146.250
1764839611.555676,0,0,-997,-124.625
1764839611.5596774,0,0,-45,-5.625
1764839611.5636814,0,0,-221,-27.625
1764839611.5676758,1,1,-733,-91.625
1764839611.5716858,0,0,-1046,-130.750
1764839611.5756762,0,0,-382,-47.750
1764839611.5796754,0,0,858,107.250
1764839611.5836778,0,0,425,53.125
1764839611.5876765,1,1,-493,-61.625
1764839611.591683,0,0,-1025,-128.125
1764839611.5956743,0,0,-2,-0.250
1764839611.5996742,0,0,1651,206.375
1764839611.60368,0,0,1074,134.250
1764839611.6076767,1,1,-224,-28.000
1764839611.611682,0,0,-1021,-127.625
1764839611.6156733,0,0,-537,-67.125
1764839611.6196747,0,0,852,106.500
1764839611.62368,0,0,547,68.375
1764839611.627675,1,1,-407,-50.875
1764839611.6316793,0,0,-991,-123.875
1764839611.6356747,0,0,-574,-71.750
1764839611.6396732,0,0,731,91.375
1764839611.6437583,0,0,464,58.000
1764839611.647694,1,1,-443,-55.375
1764839611.6516783,0,0,-971,-121.375
1764839611.6556637,0,0,-130,-16.250
1764839611.6596591,0,0,1614,201.750
1764839611.663675,0,0,1183,147.875
1764839611.6676733,1,1,-138,-17.250
1764839611.6716728,0,0,-969,-121.125
1764839611.67566,0,0,-683,-85.375
1764839611.6796584,0,0,764,95.500
1764839611.6836746,0,0,606,75.750
1764839611.6876693,1,1,-351,-43.875
1764839611.6916816,0,0,-949,-118.625
1764839611.6956742,0,0,-437,-54.625
1764839611.6996753,0,0,1330,166.250
1764839611.7036738,0,0,1128,141.000
1764839611.7076714,1,1,-911,-113.875
1764839611.7116818,0,0,-766,-95.750
1764839611.7156742,0,0,735,91.875
1764839611.7196722,0,0,705,88.125
1764839611.7236772,0,0,-267,-33.375
1764839611.727674,1,1,-910,-113.750
1764839611.7316768,0,0,-779,-97.375
1764839611.7356837,0,0,797,99.625
1764839611.7396867,0,0,803,100.375
1764839611.7436671,0,0,-219,-27.375
1764839611.7476556,1,1,-896,-112.000
1764839611.751672,0,0,-572,-71.500
1764839611.7556765,0,0,1331,166.375
1764839611.7597234,0,0,1326,165.750
1764839611.7637095,0,0,50,6.250
1764839611.7676964,1,0,-846,-105.750
1764839611.7717168,0,0,-658,-82.250
1764839611.7757177,0,0,1319,164.875
1764839611.7797203,0,0,1426,178.250
1764839611.783722,0,0,136,17.000
1764839611.7877169,1,1,-814,-101.750
1764839611.7917218,0,0,-823,-102.875
1764839611.795715,0,0,872,109.000
1764839611.799719,0,0,1042,130.250
1764839611.8037097,0,0,-56,-7.000
1764839611.8076997,1,1,-848,-106.000
1764839611.811713,0,0,-962,-120.250
1764839611.8157165,0,0,404,50.500
1764839611.8197165,0,0,629,78.625
1764839611.8237202,0,0,-250,-31.250
1764839611.8277175,1,1,-867,-108.375
1764839611.8317273,0,0,-835,-104.375
1764839611.8357146,0,0,888,111.000
1764839611.8397174,0,0,1189,148.625
1764839611.8438056,0,0,74,9.250
1764839611.8477335,1,1,-786,-98.250
1764839611.8517213,0,0,-952,-119.000
1764839611.8556964,0,0,612,76.500
1764839611.8596606,0,0,998,124.750
1764839611.8636727,0,0,1,0.125
1764839611.8676746,1,1,-783,-97.875
1764839611.8716726,0,0,-751,-93.875
1764839611.8756545,0,0,1416,177.000
1764839611.8796551,0,0,1882,235.250
1764839611.8836725,0,0,493,61.625
1764839611.8876724,1,1,-675,-84.375
1764839611.8916795,0,0,-1239,-154.875
1764839611.8956728,0,0,-292,-36.500
1764839611.8996701,0,0,184,23.000
1764839611.9036717,0,0,-401,-50.125
1764839611.9076722,1,1,-852,-106.500
1764839611.9116776,0,0,-947,-118.375
1764839611.9156702,0,0,698,87.250
1764839611.9196677,0,0,1258,157.250
1764839611.923672,0,0,208,26.000
1764839611.92767,1,0,-702,-87.750
1764839611.9316788,0,0,-1083,-135.375
1764839611.9356818,0,0,250,31.250
1764839611.939682,0,0,880,110.000
1764839611.9436636,0,0,39,4.875
1764839611.947655,1,1,-719,-89.875
1764839611.9516656,0,0,-993,-124.125
1764839611.9556723,0,0,641,80.125
1764839611.95967,0,0,1390,173.750
1764839611.96366,0,0,361,45.125
1764839611.9676535,1,1,-624,-78.000
1764839611.9716613,0,0,-954,-119.250
1764839611.9756563,0,0,982,122.750
1764839611.9796562,0,0,1881,235.125
1764839611.9836726,0,0,686,85.750
1764839611.9876702,1,1,-530,-66.250
1764839611.9916751,0,0,-1148,-143.500
1764839611.9956725,0,0,-127,-15.875
1764839611.9996717,0,0,611,76.375
1764839612.003672,0,0,-57,-7.125
1764839612.0076685,1,1,-731,-91.375
1764839612.0116763,0,0,-1170,-146.250
1764839612.0156722,0,0,-626,-78.250
1764839612.019673,0,0,-13,-1.625
1764839612.023675,0,0,-426,-53.250
1764839612.0276673,1,1,-825,-103.125
1764839612.031674,0,0,-1075,-134.375
1764839612.0356684,0,0,-187,-23.375
1764839612.0396712,0,0,576,72.000
1764839612.0492046,0,0,-684,-85.500
1764839612.051741,0,0,-865,-108.125
1764839612.0556796,0,0,1488,186.000
1764839612.0596755,0,0,2894,361.750
1764839612.0636697,0,0,1500,187.500
1764839612.0676665,1,1,-206,-25.750
1764839612.071668,0,0,-1108,-138.500
1764839612.0756686,0,0,112,14.000
1764839612.07967,0,0,1338,167.250
1764839612.0836625,0,0,600,75.000
1764839612.0876558,1,1,-448,-56.000
1764839612.0916595,0,0,-1071,-133.875
1764839612.0956545,0,0,-318,-39.750
1764839612.099653,0,0,623,77.875
1764839612.1036737,0,0,92,11.500
1764839612.1076696,1,1,-642,-80.250
1764839612.1116757,0,0,-974,-121.750
1764839612.115668,0,0,805,100.625
1764839612.1196644,0,0,2361,295.125
1764839612.1236744,0,0,1322,165.250
1764839612.1276708,1,0,-211,-26.375
1764839612.131684,0,0,-1070,-133.750
1764839612.1356816,0,0,193,24.125
1764839612.139669,0,0,1726,215.750
1764839612.143658,0,0,983,122.875
1764839612.1476562,1,1,-295,-36.875
1764839612.1516664,0,0,-1054,-131.750
1764839612.15567,0,0,-82,-10.250
1764839612.1596673,0,0,1274,159.250
1764839612.163658,0,0,661,82.625
1764839612.1676545,1,1,-429,-53.625
1764839612.171669,0,0,-1017,-127.125
1764839612.175672,0,0,293,36.625
1764839612.1796684,0,0,1907,238.375
1764839612.1836703,0,0,1138,142.250
1764839612.1876683,1,1,-257,-32.125
1764839612.191676,0,0,-1091,-136.375
1764839612.1956701,0,0,-565,-70.625
1764839612.1996694,0,0,634,79.250
1764839612.2036707,0,0,266,33.250
1764839612.2076654,1,1,-570,-71.250
1764839612.2116776,0,0,-1044,-130.500
1764839612.2156694,0,0,-2,-0.250
1764839612.2196712,0,0,1690,211.250
1764839612.223669,0,0,1114,139.250
1764839612.227666,1,1,-219,-27.375
1764839612.2316737,0,0,-1030,-128.750
1764839612.2356672,0,0,-149,-18.625
1764839612.2396674,0,0,1638,204.750
1764839612.2439811,0,0,1160,145.000
1764839612.2478838,0,1,-175,-21.875
1764839612.2517262,0,0,-980,-122.500
1764839612.25567,0,0,263,32.875
1764839612.2596688,0,0,2386,298.250
1764839612.2636724,0,0,1743,217.875
1764839612.2676659,1,1,43,5.375
1764839612.2716677,0,0,-1036,-129.500
1764839612.275667,0,0,-266,-33.250
1764839612.2796707,0,0,1754,219.250
1764839612.283672,0,0,1382,172.750
1764839612.2876685,1,1,-65,-8.125
1764839612.2916687,0,0,-995,-124.375
1764839612.2956624,0,0,-252,-31.500
1764839612.2996688,0,0,1665,208.125
1764839612.3036528,0,0,1299,162.375
1764839612.3076503,1,1,-1044,-130.500
1764839612.311668,0,0,-842,-105.250
1764839612.3156626,0,0,676,84.500
1764839612.3196638,0,0,590,73.750
1764839612.3236697,0,0,-393,-49.125
1764839612.3276675,1,1,-1030,-128.750
1764839612.3316662,0,0,-554,-69.250
1764839612.3356612,0,0,1421,177.625
1764839612.3396657,0,0,1294,161.750
1764839612.3436718,0,0,-50,-6.250
1764839612.3476744,1,1,-979,-122.375
1764839612.3516705,0,0,-780,-97.500
1764839612.3556514,0,0,898,112.250
1764839612.3596473,0,0,866,108.250
1764839612.3636684,0,0,-249,-31.125
1764839612.3676682,1,1,-995,-124.375
1764839612.371665,0,0,-569,-71.125
1764839612.375647,0,0,1560,195.000
1764839612.3796482,0,0,1541,192.625
1764839612.3836691,0,0,99,12.375
1764839612.387667,1,1,-934,-116.750
1764839612.3916717,0,0,-718,-89.750
1764839612.3956652,0,0,1398,174.750
1764839612.3996658,0,0,1497,187.125
1764839612.4036672,0,0,110,13.750
1764839612.4076657,1,1,-920,-115.000
1764839612.411672,0,0,-772,-96.500
1764839612.4156666,0,0,1379,172.375
1764839612.4196656,0,0,1566,195.750
1764839612.4236667,0,0,170,21.250
1764839612.427666,1,1,-900,-112.500
1764839612.4316702,0,0,-1367,-170.875
1764839612.4356651,0,0,-370,-46.250
1764839612.4396613,0,0,-34,-4.250
1764839612.4436665,0,0,-609,-76.125
1764839612.4477365,1,0,-1005,-125.625
1764839612.4516869,0,0,-969,-121.125
1764839612.4556506,0,0,512,64.000
1764839612.459649,0,0,768,96.000
1764839612.4636655,0,0,-215,-26.875
1764839612.4676635,1,1,-932,-116.500
1764839612.4716616,0,0,-1014,-126.750
1764839612.4756496,0,0,584,73.000
1764839612.479649,0,0,959,119.875
1764839612.4836512,0,0,-54,-6.750
1764839612.4876473,1,1,-849,-106.125
1764839612.4916537,0,0,-1014,-126.750
1764839612.4956462,0,0,732,91.500
1764839612.4996498,0,0,1208,151.000
1764839612.503668,0,0,94,11.750
1764839612.5076632,1,0,-829,-103.625
1764839612.5116677,0,0,-803,-100.375
1764839612.515666,0,0,1178,147.250
1764839612.5196645,0,0,1626,203.250
1764839612.5236676,0,0,312,39.000
1764839612.527662,1,0,-788,-98.500
1764839612.5316682,0,0,-1056,-132.000
1764839612.5356648,0,0,775,96.875
1764839612.5396643,0,0,1422,177.750
1764839612.5436695,0,0,282,35.250
1764839612.547666,0,0,-753,-94.125
1764839612.551671,0,0,-1105,-138.125
1764839612.5556493,0,0,672,84.000
1764839612.5596516,0,0,1420,177.500
1764839612.5636644,0,0,321,40.125
1764839612.5676618,1,0,-722,-90.250
1764839612.5716593,0,0,-1216,-152.000
1764839612.5756466,0,0,-98,-12.250
1764839612.579649,0,0,547,68.375
1764839612.5836723,0,0,-180,-22.500
1764839612.5876646,1,0,-852,-106.500
1764839612.591662,0,0,-990,-123.750
1764839612.5956595,0,0,1154,144.250
1764839612.599664,0,0,2101,262.625
1764839612.6036677,0,0,785,98.125
1764839612.6076603,1,0,-575,-71.875
1764839612.6116655,0,0,-1169,-146.125
1764839612.6156611,0,0,376,47.000
1764839612.6196594,0,0,1309,163.625
1764839612.6236634,0,0,357,44.625
1764839612.6276615,1,0,-677,-84.625
1764839612.6316662,0,0,-1146,-143.250
1764839612.6356583,0,0,396,49.500
1764839612.6396549,0,0,1386,173.250
1764839612.6436644,0,0,429,53.625
1764839612.6477406,0,1,-648,-81.000
1764839612.651682,0,0,-1094,-136.750
1764839612.6556454,0,0,708,88.500
1764839612.6596458,0,0,1832,229.000
1764839612.6636617,0,0,725,90.625
1764839612.6676633,0,0,-562,-70.250
1764839612.6716566,0,0,-1358,-169.750
1764839612.6756473,0,0,-925,-115.625
1764839612.679646,0,0,-92,-11.500
1764839612.6836636,0,0,-410,-51.250
1764839612.6876624,1,1,-866,-108.250
1764839612.6916695,0,0,-1104,-138.000
1764839612.6956642,0,0,217,27.125
1764839612.6996613,0,0,1284,160.500
1764839612.7036636,0,0,443,55.375
1764839612.7076602,0,0,-613,-76.625
1764839612.7116692,0,0,-1149,-143.625
1764839612.7156632,0,0,221,27.625
1764839612.7196589,0,0,1553,194.125
1764839612.7236626,0,0,729,91.125
1764839612.7276597,1,1,-475,-59.375
1764839612.7316687,0,0,-1135,-141.875
1764839612.7356622,0,0,17,2.125
1764839612.739662,0,0,1275,159.375
1764839612.7436624,0,0,554,69.250
1764839612.7476635,0,0,-538,-67.250
1764839612.751668,0,0,-1124,-140.500
1764839612.7556465,0,0,142,17.750
1764839612.75969,0,0,1550,193.750
1764839612.7637086,0,0,787,98.375
1764839612.7677028,0,0,-444,-55.500
1764839612.7717018,0,0,-1147,-143.375
1764839612.7756877,0,0,-247,-30.875
1764839612.7796893,0,0,1075,134.375
1764839612.783708,0,0,508,63.500
1764839612.7876997,0,0,-529,-66.125
1764839612.7917025,0,0,-1146,-143.250
1764839612.7957046,0,0,-402,-50.250
1764839612.7997055,0,0,904,113.000
1764839612.803695,0,0,434,54.250
1764839612.8076804,1,1,-536,-67.000
1764839612.8116994,0,0,-1109,-138.625
1764839612.8156981,0,0,28,3.500
1764839612.8197048,0,0,1828,228.500
1764839612.8237092,0,0,1205,150.625
1764839612.8277028,0,0,-211,-26.375
1764839612.8317025,0,0,-1077,-134.625
1764839612.8356996,0,0,33,4.125
1764839612.8397048,0,0,1956,244.500
1764839612.8437078,0,0,1355,169.375
1764839612.8477843,0,0,-138,-17.250
1764839612.8517177,0,0,-1078,-134.750
1764839612.855686,0,0,-166,-20.750
1764839612.8596492,0,0,1762,220.250
1764839612.8636642,0,0,1279,159.875
1764839612.8676608,0,0,-154,-19.250
1764839612.8716521,0,0,-1063,-132.875
1764839612.8756404,0,0,-117,-14.625
1764839612.879642,0,0,1917,239.625
1764839612.883664,0,0,1436,179.500
1764839612.8876598,1,0,-93,-11.625
1764839612.891668,0,0,-1077,-134.625
1764839612.8956597,0,0,-390,-48.750
1764839612.899659,0,0,1513,189.125
1764839612.9036617,0,0,1170,146.250
1764839612.9076595,0,0,-1093,-136.625
1764839612.9116657,0,0,-665,-83.125
1764839612.9156568,0,0,1178,147.250
1764839612.9196568,0,0,1007,125.875
1764839612.9236608,0,0,-226,-28.250
1764839612.9276607,0,0,-1062,-132.750
1764839612.9316661,0,0,-797,-99.625
1764839612.9356613,0,0,837,104.625
1764839612.9396567,0,0,735,91.875
1764839612.943662,0,0,-348,-43.500
1764839612.9476593,0,0,-1057,-132.125
1764839612.9516618,0,0,-603,-75.375
1764839612.9557002,0,0,1276,159.500
1764839612.9596777,0,0,1142,142.750
1764839612.9636538,0,0,-157,-19.625
1764839612.9676445,0,0,-1032,-129.000
1764839612.9716556,0,0,-800,-100.000
1764839612.9756582,0,0,928,116.000
1764839612.9796565,0,0,908,113.500
1764839612.98365,0,0,-242,-30.250
1764839612.9876401,1,1,-1020,-127.500
1764839612.991646,0,0,-539,-67.375
1764839612.9956422,0,0,1598,199.750
1764839612.9996393,0,0,1539,192.375
1764839613.0036566,0,0,61,7.625
1764839613.0076575,1,1,-985,-123.125
1764839613.0116644,0,0,-1049,-131.125
1764839613.0156567,0,0,475,59.375
1764839613.0196593,0,0,632,79.000
1764839613.023656,0,0,-336,-42.000
1764839613.0276554,0,0,-1014,-126.750
1764839613.0316565,0,0,-1108,-138.500
1764839613.0356562,0,0,212,26.500
1764839613.0396585,0,0,423,52.875
1764839613.0436594,0,0,-422,-52.750
1764839613.0530145,0,0,-679,-84.875
1764839613.0556812,0,0,1462,182.750
1764839613.0596657,0,0,1638,204.750
1764839613.063658,0,0,199,24.875
1764839613.0676544,0,0,-896,-112.000
1764839613.071652,0,0,-1146,-143.250
1764839613.0756555,0,0,377,47.125
1764839613.0796595,0,0,744,93.000
1764839613.083651,0,0,-200,-25.000
1764839613.0876365,0,0,-930,-116.250
1764839613.0916553,0,0,-1011,-126.375
1764839613.0956569,0,0,567,70.875
1764839613.0996583,0,0,919,114.875
1764839613.1036606,0,0,-112,-14.000
1764839613.1076562,0,0,-910,-113.750
1764839613.1116593,0,0,-955,-119.375
1764839613.115653,0,0,1029,128.625
1764839613.1196582,0,0,1515,189.375
1764839613.1236596,0,0,253,31.625
1764839613.127657,0,0,-805,-100.625
1764839613.1316543,0,0,-859,-107.375
1764839613.135639,0,0,1161,145.125
1764839613.1396396,0,0,1645,205.625
1764839613.1436634,0,0,314,39.250
1764839613.1476579,0,0,-811,-101.375
1764839613.1516616,0,0,-1325,-165.625
1764839613.15566,0,0,-17,-2.125
1764839613.15967,0,0,639,79.875
1764839613.1636512,0,0,-146,-18.250
1764839613.1676419,1,0,-858,-107.250
1764839613.1716557,0,0,-1078,-134.750
1764839613.1756542,0,0,675,84.375
1764839613.1796534,0,0,1393,174.125
1764839613.1836464,0,0,289,36.125
1764839613.18764,0,0,-749,-93.625
1764839613.1916554,0,0,-1080,-135.000
1764839613.1956532,0,0,889,111.125
1764839613.1996508,0,0,1763,220.375
1764839613.2036567,0,0,554,69.250
1764839613.2076523,0,0,-656,-82.000
1764839613.2116616,0,0,-1208,-151.000
1764839613.2156544,0,0,252,31.500
1764839613.2196531,0,0,1117,139.625
1764839613.22366,0,0,211,26.375
1764839613.2276523,0,0,-736,-92.000
1764839613.2316568,0,0,-1182,-147.750
1764839613.2356532,0,0,287,35.875
1764839613.2396526,0,0,1215,151.875
1764839613.2439435,0,0,297,37.125
1764839613.2478578,0,0,-702,-87.750
1764839613.2517748,0,0,-1088,-136.000
1764839613.2556734,0,0,509,63.625
1764839613.259656,0,0,1400,175.000
1764839613.2636535,0,0,378,47.250
1764839613.2676528,1,0,-703,-87.875
1764839613.2716563,0,0,-1193,-149.125
1764839613.2756526,0,0,179,22.375
1764839613.279652,0,0,1177,147.125
1764839613.283653,0,0,321,40.125
1764839613.2876513,0,0,-681,-85.125
1764839613.2916572,0,0,-1132,-141.500
1764839613.2956548,0,0,387,48.375
1764839613.2996552,0,0,1506,188.250
1764839613.3036466,0,0,556,69.500
1764839613.3076375,0,0,-605,-75.625
1764839613.3116534,0,0,-1320,-165.000
1764839613.3156555,0,0,-971,-121.375
1764839613.3196573,0,0,-212,-26.500
1764839613.323656,0,0,-506,-63.250
1764839613.3276525,1,1,-920,-115.000
1764839613.3316581,0,0,-1183,-147.875
1764839613.335656,0,0,-476,-59.500
1764839613.3396542,0,0,446,55.750
1764839613.3436592,0,0,-48,-6.000
1764839613.3476524,0,0,-744,-93.000
1764839613.3516552,0,0,-1094,-136.750
1764839613.3556528,0,0,474,59.250
1764839613.359699,0,0,1974,246.750
1764839613.363703,0,0,1055,131.875
1764839613.367699,0,0,-343,-42.875
1764839613.3717024,0,0,-1136,-142.000
1764839613.3756983,0,0,22,2.750
1764839613.379708,0,0,1482,185.250
1764839613.3836963,0,0,790,98.750
1764839613.3876789,0,1,-415,-51.875
1764839613.3916967,0,0,-1091,-136.375
1764839613.3956945,0,0,370,46.250
1764839613.3996966,0,0,2095,261.875
1764839613.4036882,0,0,1261,157.625
1764839613.40768,1,0,-241,-30.125
1764839613.4117036,0,0,-1126,-140.750
1764839613.4156964,0,0,-24,-3.000
1764839613.4196944,0,0,1659,207.375
1764839613.4237008,0,0,1026,128.250
1764839613.4276965,1,0,-308,-38.500
1764839613.4317033,0,0,-1143,-142.875
1764839613.4356935,0,0,-239,-29.875
1764839613.439692,0,0,1463,182.875
1764839613.443699,0,0,952,119.000
1764839613.4476986,0,0,-314,-39.250
1764839613.4517865,0,0,-1123,-140.375
1764839613.4557116,0,0,-842,-105.250
1764839613.4596553,0,0,365,45.625
1764839613.4636426,0,0,136,17.000
1764839613.4676368,1,0,-636,-79.500
1764839613.4716525,0,0,-1094,-136.750
1764839613.475654,0,0,-527,-65.875
1764839613.4796498,0,0,851,106.375
1764839613.48364,0,0,508,63.500
1764839613.4876392,0,0,-488,-61.000
1764839613.4916546,0,0,-1078,-134.750
1764839613.4956543,0,0,-550,-68.750
1764839613.4996533,0,0,949,118.625
1764839613.503644,0,0,658,82.250
1764839613.5076363,0,0,-398,-49.750
1764839613.511651,0,0,-320,-40.000
1764839613.5156534,0,0,1564,195.500
1764839613.5196548,0,0,1223,152.875
1764839613.523654,0,0,-137,-17.125
1764839613.5276496,0,0,-1001,-125.125
1764839613.5316565,0,0,-375,-46.875
1764839613.5356553,0,0,1524,190.500
1764839613.5396545,0,0,1240,155.000
1764839613.543654,0,0,-122,-15.250
1764839613.547649,0,0,-1014,-126.750
1764839613.551646,0,0,-656,-82.000
1764839613.5556374,0,0,1065,133.125
1764839613.5596795,0,0,927,115.875
1764839613.5636969,0,0,-239,-29.875
1764839613.5676928,0,0,-1011,-126.375
1764839613.5716987,0,0,-889,-111.125
1764839613.5756943,0,0,554,69.250
1764839613.5796964,0,0,541,67.625
1764839613.5837004,0,0,-402,-50.250
1764839613.587694,0,0,-1009,-126.125
1764839613.5916982,0,0,-645,-80.625
1764839613.5956945,0,0,1208,151.000
1764839613.599698,0,0,1169,146.125
1764839613.6037002,0,0,-86,-10.750
1764839613.6077015,0,0,-949,-118.625
1764839613.6117022,0,0,-877,-109.625
1764839613.6156769,0,0,754,94.250
1764839613.6196783,0,0,853,106.625
1764839613.623698,0,0,-205,-25.625
1764839613.6276968,0,0,-940,-117.500
1764839613.6316898,0,0,-596,-74.500
1764839613.6356716,0,0,1573,196.625
1764839613.639678,0,0,1662,207.750
1764839613.6436992,0,0,206,25.750
1764839613.6476965,0,0,-869,-108.625
1764839613.6517775,0,0,-904,-113.000
1764839613.6557028,0,0,627,78.375
1764839613.6596522,0,0,793,99.125
1764839613.6636443,0,0,-232,-29.000
1764839613.667637,0,0,-949,-118.625
1764839613.6716506,0,0,-895,-111.875
1764839613.6756473,0,0,865,108.125
1764839613.6796472,0,0,1129,141.125
1764839613.6836433,0,0,-18,-2.250
1764839613.6876347,0,0,-884,-110.500
1764839613.6916564,0,0,-1225,-153.125
1764839613.6956506,0,0,-139,-17.375
1764839613.6996505,0,0,213,26.625
1764839613.7036557,0,0,-462,-57.750
1764839613.707652,0,1,-942,-117.750
1764839613.7116575,0,0,-975,-121.875
1764839613.715646,0,0,557,69.625
1764839613.7196472,0,0,936,117.000
1764839613.7236505,0,0,-66,-8.250
1764839613.7276554,0,0,-846,-105.750
1764839613.731656,0,0,-871,-108.875
1764839613.735636,0,0,1183,147.875
1764839613.7396302,0,0,1689,211.125
1764839613.7436485,0,0,381,47.625
1764839613.7476516,0,0,-733,-91.625
1764839613.751647,0,0,-1057,-132.125
1764839613.755634,0,0,632,79.000
1764839613.7596774,0,0,1229,153.625
1764839613.763697,0,0,173,21.625
1764839613.7676907,0,0,-758,-94.750
1764839613.7716997,0,0,-1064,-133.000
1764839613.775694,0,0,626,78.250
1764839613.779692,0,0,1281,160.125
1764839613.7836893,0,0,223,27.875
1764839613.7876868,1,0,-738,-92.250
1764839613.7916977,0,0,-1214,-151.750
1764839613.7956915,0,0,-378,-47.250
1764839613.7996883,0,0,142,17.750
1764839613.8036807,0,0,-430,-53.750
1764839613.8076706,0,0,-900,-112.500
1764839613.8116868,0,0,-1011,-126.375
1764839613.8156888,0,0,577,72.125
1764839613.8196912,0,0,1315,164.375
1764839613.8236935,0,0,295,36.875
1764839613.827685,0,0,-684,-85.500
1764839613.831691,0,0,-1131,-141.375
1764839613.8356867,0,0,83,10.375
1764839613.8396878,0,0,829,103.625
1764839613.8436947,0,0,45,5.625
1764839613.8476903,1,0,-738,-92.250
1764839613.8517802,0,0,-1056,-132.000
1764839613.8557048,0,0,307,38.375
1764839613.8596535,0,0,1125,140.625
1764839613.8636444,0,0,241,30.125
1764839613.8676414,1,1,-670,-83.750
1764839613.871647,0,0,-998,-124.750
1764839613.875644,0,0,871,108.875
1764839613.8796463,0,0,1977,247.125
1764839613.8836377,0,0,828,103.500
1764839613.887633,0,0,-481,-60.125
1764839613.8916485,0,0,-1080,-135.000
1764839613.8956456,0,0,179,22.375
1764839613.8996499,0,0,1132,141.500
1764839613.9036543,0,0,315,39.375
1764839613.907648,0,0,-640,-80.000
1764839613.911648,0,0,-1096,-137.000
1764839613.915644,0,0,275,34.375
1764839613.9196472,0,0,1381,172.625
1764839613.9236503,0,0,525,65.625
1764839613.9276466,0,0,-556,-69.500
1764839613.9316537,0,0,-1169,-146.125
1764839613.9356456,0,0,-627,-78.375
1764839613.9396455,0,0,212,26.500
1764839613.9436474,0,0,-200,-25.000
1764839613.9476476,1,1,-771,-96.375
1764839613.9516537,0,0,-1056,-132.000
1764839613.9556446,0,0,-58,-7.250
1764839613.9596908,0,0,956,119.500
1764839613.9636939,0,0,291,36.375
1764839613.9677024,0,0,-608,-76.000
1764839613.9716961,0,0,-1085,-135.625
1764839613.9756887,0,0,-176,-22.000
1764839613.9796882,0,0,954,119.250
1764839613.9837031,0,0,364,45.500
1764839613.9876893,0,0,-550,-68.750
1764839613.9916956,0,0,-1056,-132.000
1764839613.99571,0,0,-80,-10.000
1764839613.9997017,0,0,1203,150.375
1764839614.0036821,0,0,593,74.125
1764839614.007686,1,0,-452,-56.500
1764839614.0116723,0,0,-1017,-127.125
1764839614.0156732,0,0,316,39.500
1764839614.0196698,0,0,1973,246.625
1764839614.0236807,0,0,1208,151.000
1764839614.0276668,1,0,-209,-26.125
1764839614.0316849,0,0,-1042,-130.250
1764839614.0356886,0,0,-52,-6.500
1764839614.0396886,0,0,1568,196.000
1764839614.0436878,0,0,994,124.250
1764839614.0476835,0,1,-266,-33.250
1764839614.0581179,0,0,977,122.125
1764839614.0599775,0,0,977,122.125
1764839614.0636473,0,0,566,70.750
1764839614.06764,0,0,-439,-54.875
1764839614.0716386,0,0,-1021,-127.625
1764839614.0756414,0,0,-62,-7.750
1764839614.0796442,0,0,1636,204.500
1764839614.0836349,0,0,1102,137.750
1764839614.0876253,1,1,-221,-27.625
1764839614.0916421,0,0,-1031,-128.875
1764839614.0956516,0,0,-312,-39.000
1764839614.0996413,0,0,1362,170.250
1764839614.1036477,0,0,969,121.125
1764839614.107642,0,0,-252,-31.500
1764839614.1116533,0,0,-379,-47.375
1764839614.1156406,0,0,1374,171.750
1764839614.1196418,0,0,1052,131.500
1764839614.1236482,0,0,-192,-24.000
1764839614.127651,0,0,-994,-124.250
1764839614.1316452,0,0,-643,-80.375
1764839614.135653,0,0,891,111.375
1764839614.1396546,0,0,692,86.500
1764839614.143641,0,0,-354,-44.250
1764839614.147629,0,0,-1003,-125.375
1764839614.1516466,0,0,-562,-70.250
1764839614.1556365,0,0,1045,130.625
1764839614.159663,0,0,853,106.625
1764839614.1636367,0,0,-266,-33.250
1764839614.167638,1,1,-974,-121.750
1764839614.1716309,0,0,-454,-56.750
1764839614.1756206,0,0,1461,182.625
1764839614.1796238,0,0,1288,161.000
1764839614.1836457,0,0,-42,-5.250
1764839614.187641,1,1,-929,-116.125
1764839614.1916382,0,0,-834,-104.250
1764839614.1956336,0,0,544,68.000
1764839614.1996353,0,0,523,65.375
1764839614.2036424,0,0,-394,-49.250
1764839614.2076387,1,1,-976,-122.000
1764839614.211645,0,0,-661,-82.625
1764839614.2156372,0,0,1131,141.375
1764839614.2196357,0,0,1125,140.625
1764839614.2236416,0,0,-81,-10.125
1764839614.227639,1,1,-911,-113.875
1764839614.231641,0,0,-992,-124.000
1764839614.2356324,0,0,318,39.750
1764839614.239632,0,0,450,56.250
1764839614.2439256,0,0,-385,-48.125
1764839614.2478795,1,0,-934,-116.750
1764839614.2516694,0,0,-443,-55.375
1764839614.2557025,0,0,1820,227.500
1764839614.2596884,0,0,1857,232.125
1764839614.263645,0,0,309,38.625
1764839614.26764,1,1,-829,-103.625
1764839614.2716367,0,0,-695,-86.875
1764839614.2756357,0,0,1542,192.750
1764839614.2796354,0,0,1776,222.000
1764839614.283637,0,0,327,40.875
1764839614.2876348,0,0,-797,-99.625
