Timestamp,LO_plus,LO_minus,Raw_ADC,Voltage_mV
1764838833.9028337,0,0,3,0.375
1764838833.9046125,1,1,3,0.375
1764838833.9063153,1,1,5,0.625
1764838833.9089942,0,0,5,0.625
1764838833.91303,0,0,13,1.625
1764838833.917005,0,0,15,1.875
1764838833.921001,0,0,14,1.750
1764838833.925042,1,1,16,2.000
1764838833.9290035,0,0,20,2.500
1764838833.9329982,0,0,22,2.750
1764838833.9370062,0,0,22,2.750
1764838833.9410026,0,0,21,2.625
1764838833.9449966,1,1,21,2.625
1764838833.9489937,0,0,24,3.000
1764838833.9529955,0,0,27,3.375
1764838833.9569926,0,0,26,3.250
1764838833.9609988,0,0,25,3.125
1764838833.9649956,1,1,26,3.250
1764838833.9689941,0,0,28,3.500
1764838833.9730117,0,0,29,3.625
1764838833.9770534,0,0,29,3.625
1764838833.9810169,0,0,27,3.375
1764838833.9849966,1,1,27,3.375
1764838833.988992,0,0,29,3.625
1764838833.9930096,0,0,30,3.750
1764838833.997004,0,0,31,3.875
1764838834.0010028,0,0,28,3.500
1764838834.0049953,1,1,28,3.500
1764838834.0089955,0,0,30,3.750
1764838834.0130663,0,0,32,4.000
1764838834.017013,0,0,31,3.875
1764838834.0210009,0,0,29,3.625
1764838834.0249944,1,1,29,3.625
1764838834.0289936,0,0,31,3.875
1764838834.0330038,0,0,32,4.000
1764838834.0370033,0,0,31,3.875
1764838834.0410466,0,0,30,3.750
1764838834.0450225,1,1,29,3.625
1764838834.0489957,0,0,30,3.750
1764838834.052991,0,0,32,4.000
1764838834.0569925,0,0,32,4.000
1764838834.0609996,0,0,29,3.625
1764838834.0650027,1,1,29,3.625
1764838834.0690014,0,0,30,3.750
1764838834.0730627,0,0,32,4.000
1764838834.0770118,0,0,31,3.875
1764838834.0810058,0,0,30,3.750
1764838834.0849938,1,1,29,3.625
1764838834.0889926,0,0,31,3.875
1764838834.0930033,0,0,32,4.000
1764838834.0970638,0,0,32,4.000
1764838834.101064,0,0,30,3.750
1764838834.1050026,1,1,29,3.625
1764838834.108994,0,0,30,3.750
1764838834.113004,0,0,32,4.000
1764838834.1170013,0,0,32,4.000
1764838834.1210394,0,0,29,3.625
1764838834.1250327,1,1,29,3.625
1764838834.1289968,0,0,30,3.750
1764838834.1329994,0,0,32,4.000
1764838834.1369932,0,0,32,4.000
1764838834.1409967,0,0,30,3.750
1764838834.1450016,1,1,29,3.625
1764838834.1490018,0,0,30,3.750
1764838834.1530588,0,0,32,4.000
1764838834.1570113,0,0,32,4.000
1764838834.161005,0,0,30,3.750
1764838834.16499,1,1,29,3.625
1764838834.168994,0,0,29,3.625
1764838834.173003,0,0,32,4.000
1764838834.1770012,0,0,32,4.000
1764838834.1810346,0,0,30,3.750
1764838834.1850264,1,1,29,3.625
1764838834.1890016,0,0,30,3.750
1764838834.1930053,0,0,32,4.000
1764838834.1969929,0,0,31,3.875
1764838834.2009983,0,0,30,3.750
1764838834.2049994,1,1,29,3.625
1764838834.209,0,0,30,3.750
1764838834.2130477,0,0,32,4.000
1764838834.2170105,0,0,32,4.000
1764838834.220999,0,0,31,3.875
1764838834.2249918,1,1,29,3.625
1764838834.2289903,0,0,30,3.750
1764838834.2330022,0,0,32,4.000
1764838834.2369995,0,0,32,4.000
1764838834.2410393,0,0,30,3.750
1764838834.2453172,1,1,29,3.625
1764838834.2490501,0,0,30,3.750
1764838834.2530053,0,0,32,4.000
1764838834.2569978,0,0,32,4.000
1764838834.2610009,0,0,30,3.750
1764838834.2649977,1,1,29,3.625
1764838834.2689962,0,0,30,3.750
1764838834.2730541,0,0,32,4.000
1764838834.2770061,0,0,32,4.000
1764838834.2809994,0,0,31,3.875
1764838834.2849941,1,1,30,3.750
1764838834.28899,0,0,30,3.750
1764838834.292998,0,0,32,4.000
1764838834.2970622,0,0,33,4.125
1764838834.3010364,0,0,31,3.875
1764838834.3051722,1,1,29,3.625
1764838834.308993,0,0,30,3.750
1764838834.3129892,0,0,32,4.000
1764838834.3169887,0,0,32,4.000
1764838834.321029,0,0,31,3.875
1764838834.3250158,1,1,30,3.750
1764838834.328989,0,0,30,3.750
1764838834.3329887,0,0,32,4.000
1764838834.336988,0,0,33,4.125
1764838834.3409972,0,0,31,3.875
1764838834.3449998,1,1,29,3.625
1764838834.348999,0,0,29,3.625
1764838834.353059,0,0,32,4.000
1764838834.3570094,0,0,33,4.125
1764838834.3609998,0,0,31,3.875
1764838834.36499,1,1,29,3.625
1764838834.3689895,0,0,29,3.625
1764838834.3730664,0,0,32,4.000
1764838834.3770103,0,0,33,4.125
1764838834.3810015,0,0,31,3.875
1764838834.384991,1,1,29,3.625
1764838834.3889897,0,0,30,3.750
1764838834.3930452,0,0,32,4.000
1764838834.3970027,0,0,32,4.000
1764838834.4010003,0,0,31,3.875
1764838834.40499,1,1,29,3.625
1764838834.409114,0,0,29,3.625
1764838834.4131124,0,0,31,3.875
1764838834.4171066,0,0,33,4.125
1764838834.4211056,0,0,32,4.000
1764838834.4250913,1,1,28,3.500
1764838834.4290917,0,0,28,3.500
1764838834.4331734,0,0,32,4.000
1764838834.4371114,0,0,33,4.125
1764838834.4411056,0,0,32,4.000
1764838834.4451573,1,1,29,3.625
1764838834.4491148,0,0,29,3.625
1764838834.453106,0,0,32,4.000
1764838834.4570892,0,0,32,4.000
1764838834.4610975,0,0,32,4.000
1764838834.4651723,1,1,29,3.625
1764838834.4691157,0,0,29,3.625
1764838834.4731057,0,0,31,3.875
1764838834.477093,0,0,33,4.125
1764838834.481099,0,0,32,4.000
1764838834.4851043,1,1,29,3.625
1764838834.4891062,0,0,29,3.625
1764838834.4931068,0,0,32,4.000
1764838834.4971771,0,0,33,4.125
1764838834.501146,0,0,32,4.000
1764838834.505131,1,1,29,3.625
1764838834.509171,0,0,29,3.625
1764838834.5131247,0,0,32,4.000
1764838834.5171094,0,0,33,4.125
1764838834.5211072,0,0,32,4.000
1764838834.5250888,1,1,28,3.500
1764838834.529086,0,0,29,3.625
1764838834.5331073,0,0,31,3.875
1764838834.5371065,0,0,32,4.000
1764838834.5411067,0,0,32,4.000
1764838834.5451455,1,1,29,3.625
1764838834.5490963,0,0,29,3.625
1764838834.553095,0,0,31,3.875
1764838834.5570908,0,0,33,4.125
1764838834.561102,0,0,32,4.000
1764838834.565159,1,1,30,3.750
1764838834.5691144,0,0,29,3.625
1764838834.5731008,0,0,31,3.875
1764838834.57709,0,0,33,4.125
1764838834.581106,0,0,32,4.000
1764838834.5851057,1,1,29,3.625
1764838834.5891044,0,0,29,3.625
1764838834.5931685,0,0,33,4.125
1764838834.5971148,0,0,32,4.000
1764838834.6011064,0,0,29,3.625
1764838834.605101,1,1,29,3.625
1764838834.6091,0,0,31,3.875
1764838834.6131082,0,0,33,4.125
1764838834.6171055,0,0,32,4.000
1764838834.6211061,0,0,29,3.625
1764838834.6250906,1,1,29,3.625
1764838834.6290858,0,0,31,3.875
1764838834.63317,0,0,33,4.125
1764838834.6371107,0,0,32,4.000
1764838834.6411066,0,0,29,3.625
1764838834.6451015,1,1,29,3.625
1764838834.6490996,0,0,31,3.875
1764838834.6531029,0,0,32,4.000
1764838834.6570976,0,0,32,4.000
1764838834.6611032,0,0,30,3.750
1764838834.6651022,1,1,29,3.625
1764838834.6691015,0,0,30,3.750
1764838834.6731029,0,0,32,4.000
1764838834.6771016,0,0,33,4.125
1764838834.681116,0,0,30,3.750
1764838834.6851556,1,1,29,3.625
1764838834.6891317,0,0,31,3.875
1764838834.6931002,0,0,33,4.125
1764838834.6971753,0,0,33,4.125
1764838834.7011137,0,0,30,3.750
1764838834.7051024,1,1,29,3.625
1764838834.7091005,0,0,30,3.750
1764838834.7131753,0,0,33,4.125
1764838834.7171133,0,0,32,4.000
1764838834.7211058,0,0,29,3.625
1764838834.72509,1,1,29,3.625
1764838834.7290878,0,0,30,3.750
1764838834.7331045,0,0,33,4.125
1764838834.737101,0,0,33,4.125
1764838834.7410975,0,0,29,3.625
1764838834.745087,1,1,29,3.625
1764838834.7490866,0,0,30,3.750
1764838834.7531047,0,0,33,4.125
1764838834.7571595,0,0,32,4.000
1764838834.7611115,0,0,29,3.625
1764838834.765086,1,1,29,3.625
1764838834.769088,0,0,30,3.750
1764838834.7731035,0,0,32,4.000
1764838834.7770998,0,0,33,4.125
1764838834.781102,0,0,30,3.750
1764838834.7850862,1,1,29,3.625
1764838834.7890851,0,0,30,3.750
1764838834.793109,0,0,33,4.125
1764838834.797147,0,0,33,4.125
1764838834.8010952,0,0,30,3.750
1764838834.805086,1,1,29,3.625
1764838834.8090882,0,0,30,3.750
1764838834.8131037,0,0,32,4.000
1764838834.8171015,0,0,32,4.000
1764838834.8210998,0,0,30,3.750
1764838834.8251631,1,1,29,3.625
1764838834.8291142,0,0,29,3.625
1764838834.833105,0,0,32,4.000
1764838834.8370876,0,0,33,4.125
1764838834.8411455,0,0,30,3.750
1764838834.8451402,1,1,29,3.625
1764838834.8491046,0,0,29,3.625
1764838834.8530996,0,0,32,4.000
1764838834.8570862,0,0,33,4.125
1764838834.8610942,0,0,30,3.750
1764838834.865103,1,1,29,3.625
1764838834.869099,0,0,30,3.750
1764838834.8731728,0,0,32,4.000
1764838834.8771138,0,0,32,4.000
1764838834.8811033,0,0,30,3.750
1764838834.8850873,1,1,29,3.625
1764838834.8890836,0,0,29,3.625
1764838834.8930871,0,0,32,4.000
1764838834.9022148,0,0,31,3.875
1764838834.905135,1,1,28,3.500
1764838834.909089,0,0,28,3.500
1764838834.9130867,0,0,32,4.000
1764838834.9170864,0,0,32,4.000
1764838834.9211004,0,0,30,3.750
1764838834.9250925,1,1,29,3.625
1764838834.9290848,0,0,29,3.625
1764838834.933163,0,0,32,4.000
1764838834.9371283,0,0,32,4.000
1764838834.941107,0,0,30,3.750
1764838834.9450877,1,1,28,3.500
1764838834.9490855,0,0,29,3.625
1764838834.9531016,0,0,32,4.000
1764838834.9570997,0,0,32,4.000
1764838834.961104,0,0,31,3.875
1764838834.9650865,1,1,28,3.500
1764838834.969083,0,0,29,3.625
1764838834.973105,0,0,32,4.000
1764838834.9771597,0,0,33,4.125
1764838834.9811137,0,0,31,3.875
1764838834.9850862,1,1,29,3.625
1764838834.9890807,0,0,29,3.625
1764838834.993102,0,0,32,4.000
1764838834.9970992,0,0,33,4.125
1764838835.0012212,0,0,31,3.875
1764838835.0051458,1,1,29,3.625
1764838835.009109,0,0,29,3.625
1764838835.0131428,0,0,32,4.000
1764838835.0170882,0,0,32,4.000
1764838835.0211408,0,0,31,3.875
1764838835.0251424,1,1,28,3.500
1764838835.0291076,0,0,29,3.625
1764838835.0331008,0,0,33,4.125
1764838835.037088,0,0,33,4.125
1764838835.0410984,0,0,31,3.875
1764838835.0451014,1,1,29,3.625
1764838835.0490985,0,0,29,3.625
1764838835.0531456,0,0,32,4.000
1764838835.0570974,0,0,33,4.125
1764838835.0610926,0,0,32,4.000
1764838835.065085,0,1,29,3.625
1764838835.0690842,0,0,29,3.625
1764838835.0731022,0,0,32,4.000
1764838835.077101,0,0,32,4.000
1764838835.0811036,0,0,31,3.875
1764838835.085166,1,1,30,3.750
1764838835.089115,0,0,29,3.625
1764838835.0930986,0,0,32,4.000
1764838835.0970848,0,0,33,4.125
1764838835.1011624,0,0,32,4.000
1764838835.1050944,0,0,29,3.625
1764838835.109083,0,0,29,3.625
1764838835.113139,0,0,32,4.000
1764838835.1171021,0,0,33,4.125
1764838835.1211102,0,0,32,4.000
1764838835.1250918,0,0,29,3.625
1764838835.1290832,0,0,29,3.625
1764838835.1330843,0,0,31,3.875
1764838835.1370823,0,0,33,4.125
1764838835.1410959,0,0,32,4.000
1764838835.145102,0,0,29,3.625
1764838835.149098,0,0,29,3.625
1764838835.1530886,0,0,31,3.875
1764838835.1570842,0,0,33,4.125
1764838835.1610994,0,0,32,4.000
1764838835.1651015,0,0,29,3.625
1764838835.1690958,0,0,29,3.625
1764838835.1730988,0,0,31,3.875
1764838835.1770983,0,0,33,4.125
1764838835.1811068,0,0,32,4.000
1764838835.1850991,0,0,29,3.625
1764838835.1890986,0,0,29,3.625
1764838835.1931012,0,0,31,3.875
1764838835.1970954,0,0,32,4.000
1764838835.2011013,0,0,32,4.000
1764838835.2050984,0,0,29,3.625
1764838835.2090988,0,0,29,3.625
1764838835.2131,0,0,31,3.875
1764838835.2170954,0,0,33,4.125
1764838835.2211063,0,0,32,4.000
1764838835.225099,0,0,29,3.625
1764838835.2290988,0,0,29,3.625
1764838835.2330995,0,0,31,3.875
1764838835.2370958,0,0,32,4.000
1764838835.2411027,0,0,32,4.000
1764838835.2454703,1,1,29,3.625
1764838835.249226,0,0,29,3.625
1764838835.2531166,0,0,31,3.875
1764838835.2570968,0,0,33,4.125
1764838835.2610967,0,0,33,4.125
1764838835.2650971,0,0,29,3.625
1764838835.2690969,0,0,29,3.625
1764838835.2730978,0,0,31,3.875
1764838835.277092,0,0,33,4.125
1764838835.281097,0,0,32,4.000
1764838835.2850997,0,0,30,3.750
1764838835.2890975,0,0,29,3.625
1764838835.2931037,0,0,33,4.125
1764838835.297096,0,0,32,4.000
1764838835.3012998,0,0,29,3.625
1764838835.3051028,0,0,29,3.625
1764838835.3092413,0,0,31,3.875
1764838835.313302,0,0,32,4.000
1764838835.317256,0,0,32,4.000
1764838835.3211133,0,0,29,3.625
1764838835.3250992,0,0,29,3.625
1764838835.3291006,0,0,31,3.875
1764838835.3330903,0,0,32,4.000
1764838835.337083,0,0,33,4.125
1764838835.3410912,0,0,29,3.625
1764838835.3450987,0,0,29,3.625
1764838835.349097,0,0,30,3.750
1764838835.3531013,0,0,33,4.125
1764838835.3570957,0,0,32,4.000
1764838835.3610964,0,0,30,3.750
1764838835.365094,0,0,29,3.625
1764838835.3690927,0,0,31,3.875
1764838835.3731022,0,0,33,4.125
1764838835.3770957,0,0,33,4.125
1764838835.3811011,0,0,30,3.750
1764838835.3850925,0,0,28,3.500
1764838835.389095,0,0,30,3.750
1764838835.393102,0,0,33,4.125
1764838835.3970969,0,0,33,4.125
1764838835.4010994,0,0,30,3.750
1764838835.4050918,0,0,29,3.625
1764838835.4090934,0,0,30,3.750
1764838835.4131079,0,0,32,4.000
1764838835.4171433,0,0,33,4.125
1764838835.4211035,0,0,29,3.625
1764838835.425078,0,0,29,3.625
1764838835.4290779,0,0,30,3.750
1764838835.4330974,0,0,33,4.125
1764838835.4370964,0,0,33,4.125
1764838835.4410965,0,0,30,3.750
1764838835.4450762,0,0,29,3.625
1764838835.4490767,0,0,30,3.750
1764838835.4530995,0,0,32,4.000
1764838835.457097,0,0,33,4.125
1764838835.461103,0,0,30,3.750
1764838835.4650948,0,0,29,3.625
1764838835.4690921,0,0,29,3.625
1764838835.4731007,0,0,32,4.000
1764838835.4770951,0,0,33,4.125
1764838835.481101,0,0,30,3.750
1764838835.485094,0,0,28,3.500
1764838835.4890943,0,0,30,3.750
1764838835.4931023,0,0,33,4.125
1764838835.4970956,0,0,32,4.000
1764838835.5011888,0,0,30,3.750
1764838835.5051103,0,0,29,3.625
1764838835.5090945,0,0,29,3.625
1764838835.513089,0,0,33,4.125
1764838835.5171173,0,0,33,4.125
1764838835.5210931,0,0,30,3.750
1764838835.5250955,0,0,28,3.500
1764838835.529095,0,0,29,3.625
1764838835.5330865,0,0,32,4.000
1764838835.5370758,0,0,33,4.125
1764838835.5410872,0,0,31,3.875
1764838835.5450966,0,0,29,3.625
1764838835.5490935,0,0,29,3.625
1764838835.5530853,0,0,32,4.000
1764838835.557076,0,0,32,4.000
1764838835.5610893,0,0,31,3.875
1764838835.565095,0,0,29,3.625
1764838835.569094,0,0,30,3.750
1764838835.5730975,0,0,32,4.000
1764838835.5770907,0,0,33,4.125
1764838835.5810978,0,0,30,3.750
1764838835.5850923,0,0,29,3.625
1764838835.5890925,0,0,29,3.625
1764838835.593101,0,0,32,4.000
1764838835.5970905,0,0,32,4.000
1764838835.601095,0,0,30,3.750
1764838835.60509,0,0,29,3.625
1764838835.6090932,0,0,29,3.625
1764838835.6131058,0,0,32,4.000
1764838835.617099,0,0,32,4.000
1764838835.6210961,0,0,31,3.875
1764838835.625078,0,0,29,3.625
1764838835.6290784,0,0,29,3.625
1764838835.6330936,0,0,32,4.000
1764838835.6370883,0,0,32,4.000
1764838835.6410904,0,0,31,3.875
1764838835.6450746,0,0,29,3.625
1764838835.6490774,0,0,29,3.625
1764838835.6530786,0,0,32,4.000
1764838835.6570776,0,0,33,4.125
1764838835.6610823,0,0,31,3.875
1764838835.6650906,0,0,29,3.625
1764838835.6690893,0,0,29,3.625
1764838835.6730933,0,0,32,4.000
1764838835.6770926,0,0,33,4.125
1764838835.6810884,0,0,31,3.875
1764838835.6850884,0,0,29,3.625
1764838835.689092,0,0,29,3.625
1764838835.693084,0,0,32,4.000
1764838835.6970751,0,0,33,4.125
1764838835.7011712,0,0,31,3.875
1764838835.7051075,0,0,29,3.625
1764838835.7090921,0,0,30,3.750
1764838835.7130806,0,0,32,4.000
1764838835.7170763,0,0,33,4.125
1764838835.721125,0,0,32,4.000
1764838835.72509,0,0,29,3.625
1764838835.7290902,0,0,29,3.625
1764838835.7330856,0,0,32,4.000
1764838835.737078,0,0,33,4.125
1764838835.74109,0,0,31,3.875
1764838835.74509,0,0,29,3.625
1764838835.7490885,0,0,29,3.625
1764838835.7530944,0,0,32,4.000
1764838835.757091,0,0,33,4.125
1764838835.7610958,0,0,32,4.000
1764838835.7650867,0,0,29,3.625
1764838835.7690883,0,0,29,3.625
1764838835.773088,0,0,32,4.000
1764838835.7770917,0,0,33,4.125
1764838835.7810996,0,0,32,4.000
1764838835.7850854,0,0,29,3.625
1764838835.7890854,0,0,29,3.625
1764838835.7930887,0,0,31,3.875
1764838835.79709,0,0,33,4.125
1764838835.80109,0,0,32,4.000
1764838835.8050892,0,0,29,3.625
1764838835.8090754,0,0,29,3.625
1764838835.8130877,0,0,32,4.000
1764838835.8170886,0,0,32,4.000
1764838835.8211045,0,0,32,4.000
1764838835.825089,0,0,29,3.625
1764838835.8290854,0,0,29,3.625
1764838835.833078,0,0,32,4.000
1764838835.837071,0,0,33,4.125
1764838835.8410878,0,0,32,4.000
1764838835.8450925,0,0,29,3.625
1764838835.8490884,0,0,28,3.500
1764838835.8530936,0,0,31,3.875
1764838835.8570879,0,0,32,4.000
1764838835.861094,0,0,32,4.000
1764838835.865089,0,0,29,3.625
1764838835.8690884,0,0,29,3.625
1764838835.8730876,0,0,30,3.750
1764838835.8770883,0,0,33,4.125
1764838835.8810909,0,0,33,4.125
1764838835.8850908,0,0,29,3.625
1764838835.8890898,0,0,28,3.500
1764838835.8930907,0,0,31,3.875
1764838835.8970857,0,0,33,4.125
1764838835.9059963,1,1,28,3.500
1764838835.9091105,0,1,28,3.500
1764838835.9130814,0,0,30,3.750
1764838835.9170713,0,0,32,4.000
1764838835.9210856,0,0,32,4.000
1764838835.9250913,0,0,29,3.625
1764838835.9290912,0,0,29,3.625
1764838835.933083,0,0,30,3.750
1764838835.9370735,0,0,33,4.125
1764838835.9410882,0,0,32,4.000
1764838835.9450915,0,0,29,3.625
1764838835.949088,0,0,28,3.500
1764838835.953091,0,0,31,3.875
1764838835.9570873,0,0,33,4.125
1764838835.9610927,0,0,32,4.000
1764838835.9650877,0,0,30,3.750
1764838835.9690886,0,0,29,3.625
1764838835.9730926,0,0,30,3.750
1764838835.9770849,0,0,33,4.125
1764838835.9810948,0,0,33,4.125
1764838835.985088,0,0,29,3.625
1764838835.9890876,1,0,30,3.750
1764838835.9930904,0,0,33,4.125
1764838835.997085,0,0,33,4.125
1764838836.0010922,0,0,30,3.750
1764838836.0050836,0,0,28,3.500
1764838836.0090878,0,0,30,3.750
1764838836.0130942,0,0,33,4.125
1764838836.0170884,0,0,33,4.125
1764838836.0211258,0,0,30,3.750
1764838836.0250912,0,0,28,3.500
1764838836.029094,0,0,30,3.750
1764838836.0330803,0,0,33,4.125
1764838836.0370736,0,0,33,4.125
1764838836.0410762,0,0,29,3.625
1764838836.0450833,0,0,29,3.625
1764838836.0490851,0,0,30,3.750
1764838836.05308,0,0,33,4.125
1764838836.0570712,0,0,33,4.125
1764838836.0610852,0,0,30,3.750
1764838836.0650892,0,0,29,3.625
1764838836.0690846,0,0,30,3.750
1764838836.0730865,0,0,32,4.000
1764838836.0770872,0,0,32,4.000
1764838836.08109,0,0,30,3.750
1764838836.085084,0,0,28,3.500
1764838836.089085,0,0,29,3.625
1764838836.0930903,0,0,33,4.125
1764838836.0970864,0,0,33,4.125
1764838836.101093,0,0,30,3.750
1764838836.1051736,0,0,28,3.500
1764838836.109099,0,0,30,3.750
1764838836.1130774,0,0,33,4.125
1764838836.1170726,0,0,33,4.125
1764838836.1211212,0,0,30,3.750
1764838836.1250885,0,0,29,3.625
1764838836.1290865,0,0,30,3.750
1764838836.1330764,0,0,33,4.125
1764838836.1370726,0,0,32,4.000
1764838836.1410847,0,0,30,3.750
1764838836.1450882,0,0,29,3.625
1764838836.1490808,0,0,29,3.625
1764838836.1530855,0,0,33,4.125
1764838836.1570842,0,0,32,4.000
1764838836.1610856,0,0,30,3.750
1764838836.1650689,0,0,29,3.625
1764838836.1690686,0,0,30,3.750
1764838836.173086,0,0,32,4.000
1764838836.1770823,0,0,33,4.125
1764838836.1810908,0,0,30,3.750
1764838836.1850846,0,0,28,3.500
1764838836.1890814,0,1,29,3.625
1764838836.1930819,0,0,32,4.000
1764838836.1970813,0,0,32,4.000
1764838836.2010903,0,0,30,3.750
1764838836.2050822,0,0,29,3.625
1764838836.2090836,0,0,30,3.750
1764838836.2130861,0,0,32,4.000
1764838836.2170827,0,0,32,4.000
1764838836.2210917,0,0,30,3.750
1764838836.2250998,0,0,29,3.625
1764838836.2290888,0,0,29,3.625
1764838836.2330697,0,0,32,4.000
1764838836.2370644,0,0,33,4.125
1764838836.241078,0,0,31,3.875
1764838836.2454555,0,0,28,3.500
1764838836.2492096,0,0,28,3.500
1764838836.2531025,0,0,32,4.000
1764838836.2570837,0,0,33,4.125
1764838836.2610853,0,0,31,3.875
1764838836.265088,0,0,29,3.625
1764838836.2690823,0,0,29,3.625
1764838836.2730846,0,0,32,4.000
1764838836.2770813,0,0,33,4.125
1764838836.2810848,0,0,30,3.750
1764838836.2850854,0,0,29,3.625
1764838836.289085,1,0,29,3.625
1764838836.2930887,0,0,32,4.000
1764838836.297081,0,0,33,4.125
1764838836.3010852,0,0,31,3.875
1764838836.3051596,0,0,29,3.625
1764838836.3090832,0,0,29,3.625
1764838836.3130825,0,0,32,4.000
1764838836.3170657,0,0,33,4.125
1764838836.3210762,0,0,31,3.875
1764838836.325123,0,0,29,3.625
1764838836.3290856,0,0,29,3.625
1764838836.3330777,0,0,32,4.000
1764838836.3370686,0,0,33,4.125
1764838836.3410769,0,0,31,3.875
1764838836.345083,0,0,29,3.625
1764838836.3490825,0,0,29,3.625
1764838836.3530853,0,0,32,4.000
1764838836.3570828,0,0,34,4.250
1764838836.3610854,0,0,32,4.000
1764838836.3650796,0,0,28,3.500
1764838836.3690805,1,0,29,3.625
1764838836.3730903,0,0,32,4.000
1764838836.3770814,0,0,33,4.125
1764838836.381088,0,0,32,4.000
1764838836.3850808,0,0,28,3.500
1764838836.3890786,1,1,29,3.625
1764838836.3930817,0,0,32,4.000
1764838836.3970804,0,0,33,4.125
1764838836.401088,0,0,32,4.000
1764838836.4050794,0,0,29,3.625
1764838836.4090776,0,0,29,3.625
1764838836.4130757,0,0,32,4.000
1764838836.4170666,0,0,33,4.125
1764838836.4210792,0,0,32,4.000
1764838836.4251244,0,0,28,3.500
1764838836.4290898,0,0,29,3.625
1764838836.4330738,0,0,31,3.875
1764838836.4370646,0,0,33,4.125
1764838836.4410782,0,0,32,4.000
1764838836.4450803,0,0,29,3.625
1764838836.449078,0,1,29,3.625
1764838836.4530733,0,0,31,3.875
1764838836.4570663,0,0,33,4.125
1764838836.461078,0,0,32,4.000
1764838836.4650853,0,0,29,3.625
1764838836.4690778,1,1,28,3.500
1764838836.4730794,0,0,31,3.875
1764838836.4770813,0,0,33,4.125
1764838836.4810827,0,0,32,4.000
1764838836.4850821,0,0,29,3.625
1764838836.4890769,1,1,29,3.625
1764838836.493082,0,0,31,3.875
1764838836.4970853,0,0,32,4.000
1764838836.5010839,0,0,32,4.000
1764838836.5051663,0,0,29,3.625
1764838836.5090907,0,0,29,3.625
1764838836.5130725,0,0,31,3.875
1764838836.5170639,0,0,32,4.000
1764838836.5210795,0,0,32,4.000
1764838836.5251176,0,0,29,3.625
1764838836.5290823,0,0,29,3.625
1764838836.533073,0,0,31,3.875
1764838836.537063,0,0,33,4.125
1764838836.5410767,0,0,32,4.000
1764838836.545082,0,0,29,3.625
1764838836.5490801,0,1,28,3.500
1764838836.5530663,0,0,30,3.750
1764838836.5570621,0,0,33,4.125
1764838836.5610762,0,0,32,4.000
1764838836.565079,0,0,29,3.625
1764838836.569081,1,1,29,3.625
1764838836.5730813,0,0,30,3.750
1764838836.5770762,0,0,33,4.125
1764838836.5810795,0,0,32,4.000
1764838836.585081,0,0,29,3.625
1764838836.5890796,0,0,29,3.625
1764838836.5930793,0,0,31,3.875
1764838836.5970776,0,0,33,4.125
1764838836.6010776,0,0,32,4.000
1764838836.6050766,0,0,30,3.750
1764838836.6090775,0,0,29,3.625
1764838836.613083,0,0,30,3.750
1764838836.6170754,0,0,33,4.125
1764838836.6210768,0,0,32,4.000
1764838836.6250796,0,0,29,3.625
1764838836.6291513,0,0,29,3.625
1764838836.6331453,0,0,30,3.750
1764838836.6371326,0,0,33,4.125
1764838836.6411242,0,0,33,4.125
1764838836.6451004,0,0,30,3.750
1764838836.6491039,1,0,29,3.625
1764838836.6531234,0,0,30,3.750
1764838836.6571229,0,0,33,4.125
1764838836.6611185,0,0,33,4.125
1764838836.6651187,0,0,30,3.750
1764838836.6691232,0,1,29,3.625
1764838836.6731112,0,0,32,4.000
1764838836.6771011,0,0,33,4.125
1764838836.6811094,0,0,30,3.750
1764838836.6851218,0,0,29,3.625
1764838836.6891215,0,1,29,3.625
1764838836.693126,0,0,32,4.000
1764838836.6971195,0,0,33,4.125
1764838836.701119,0,0,30,3.750
1764838836.705204,0,0,28,3.500
1764838836.7091315,0,0,30,3.750
1764838836.7131107,0,0,33,4.125
1764838836.7171025,0,0,33,4.125
1764838836.7211113,0,0,30,3.750
1764838836.725119,0,0,29,3.625
1764838836.7292058,0,1,30,3.750
1764838836.7330787,0,0,33,4.125
1764838836.737064,0,0,33,4.125
1764838836.7410762,0,0,30,3.750
1764838836.7450783,0,0,29,3.625
1764838836.7490764,0,0,30,3.750
1764838836.753079,0,0,33,4.125
1764838836.7570791,0,0,33,4.125
1764838836.7610795,0,0,30,3.750
1764838836.7650752,0,0,29,3.625
1764838836.769074,0,0,30,3.750
1764838836.7730768,0,0,32,4.000
1764838836.777076,0,0,32,4.000
1764838836.7810807,0,0,30,3.750
1764838836.7850728,0,0,29,3.625
1764838836.7890742,0,0,29,3.625
1764838836.7930756,0,0,32,4.000
1764838836.7970762,0,0,33,4.125
1764838836.8010745,0,0,31,3.875
1764838836.8050616,0,0,29,3.625
1764838836.809059,1,1,30,3.750
1764838836.8130734,0,0,32,4.000
1764838836.8170772,0,0,33,4.125
1764838836.8210826,0,0,31,3.875
1764838836.8250763,0,0,29,3.625
1764838836.8290725,0,0,29,3.625
1764838836.833075,0,0,32,4.000
1764838836.8370743,0,0,32,4.000
1764838836.841077,0,0,31,3.875
1764838836.8450835,0,0,28,3.500
1764838836.8490815,0,0,30,3.750
1764838836.8530655,0,0,32,4.000
1764838836.8570585,0,0,33,4.125
1764838836.8610716,0,0,30,3.750
1764838836.865075,0,0,28,3.500
1764838836.869075,0,0,29,3.625
1764838836.8730633,0,0,32,4.000
1764838836.8770573,0,0,33,4.125
1764838836.8810704,0,0,30,3.750
1764838836.885076,0,0,29,3.625
1764838836.8890743,0,0,29,3.625
1764838836.893078,0,0,32,4.000
1764838836.8970706,0,0,32,4.000
1764838836.9010742,0,0,31,3.875
1764838836.909953,0,0,29,3.625
1764838836.9131007,0,0,32,4.000
1764838836.917076,0,0,32,4.000
1764838836.92107,0,0,31,3.875
1764838836.9250612,0,0,29,3.625
1764838836.9290586,1,1,29,3.625
1764838836.9330795,0,0,31,3.875
1764838836.9370735,0,0,32,4.000
1764838836.941078,0,0,31,3.875
1764838836.9450576,0,0,28,3.500
1764838836.9490597,0,0,28,3.500
1764838836.953079,0,0,32,4.000
1764838836.957074,0,0,33,4.125
1764838836.9610803,0,0,31,3.875
1764838836.965076,0,0,29,3.625
1764838836.9690745,1,1,29,3.625
1764838836.97307,0,0,32,4.000
1764838836.977066,0,0,33,4.125
1764838836.9810705,0,0,31,3.875
1764838836.985062,0,0,28,3.500
1764838836.9890606,0,0,29,3.625
1764838836.993089,0,0,31,3.875
1764838836.9970782,0,0,33,4.125
1764838837.0010765,0,0,31,3.875
1764838837.005057,0,0,29,3.625
1764838837.0090537,0,0,29,3.625
1764838837.0130787,0,0,32,4.000
1764838837.017076,0,0,33,4.125
1764838837.0210795,0,0,32,4.000
1764838837.0250714,0,0,29,3.625
1764838837.0290732,0,0,29,3.625
1764838837.033115,0,0,32,4.000
1764838837.0370767,0,0,33,4.125
1764838837.0410728,0,0,32,4.000
1764838837.0450718,0,0,29,3.625
1764838837.0490723,0,0,29,3.625
1764838837.0530689,0,0,32,4.000
1764838837.0570586,0,0,32,4.000
1764838837.0610688,0,0,32,4.000
1764838837.0650702,0,0,29,3.625
1764838837.069071,0,0,29,3.625
1764838837.073074,0,0,31,3.875
1764838837.0770748,0,0,33,4.125
1764838837.081073,0,0,32,4.000
1764838837.0850704,0,0,29,3.625
1764838837.0890694,1,1,29,3.625
1764838837.0930772,0,0,31,3.875
1764838837.0970716,0,0,33,4.125
1764838837.1010747,0,0,33,4.125
1764838837.1050732,0,0,29,3.625
1764838837.1091552,1,0,29,3.625
1764838837.1130757,0,0,31,3.875
1764838837.1170592,0,0,33,4.125
1764838837.1210825,0,0,32,4.000
1764838837.1250758,0,0,30,3.750
1764838837.1290715,0,0,30,3.750
1764838837.1331031,0,0,31,3.875
1764838837.137066,0,0,33,4.125
1764838837.1410723,0,0,32,4.000
1764838837.1450791,0,0,29,3.625
1764838837.1490736,0,0,29,3.625
1764838837.153073,0,0,31,3.875
1764838837.157076,0,0,33,4.125
1764838837.161075,0,0,32,4.000
1764838837.1650748,0,0,29,3.625
1764838837.169073,0,0,29,3.625
1764838837.1730764,0,0,31,3.875
1764838837.177073,0,0,34,4.250
1764838837.1810744,0,0,33,4.125
1764838837.1850584,0,0,29,3.625
1764838837.1890554,0,0,29,3.625
1764838837.1930735,0,0,31,3.875
1764838837.1970732,0,0,33,4.125
1764838837.2010767,0,0,32,4.000
1764838837.2050748,0,0,29,3.625
1764838837.2090764,0,0,29,3.625
1764838837.2130768,0,0,31,3.875
1764838837.2170706,0,0,33,4.125
1764838837.2210743,0,0,32,4.000
1764838837.2250736,0,0,29,3.625
1764838837.2290742,0,0,28,3.500
1764838837.2330706,0,0,30,3.750
1764838837.2370715,0,0,33,4.125
1764838837.2410727,0,0,33,4.125
1764838837.245447,0,0,30,3.750
1764838837.2492247,0,1,29,3.625
1764838837.2531042,0,0,30,3.750
1764838837.2570713,0,0,33,4.125
1764838837.2610703,0,0,32,4.000
1764838837.2650745,0,0,30,3.750
1764838837.269073,0,0,28,3.500
1764838837.2730744,0,0,31,3.875
1764838837.27707,0,0,33,4.125
1764838837.281072,0,0,32,4.000
1764838837.2850738,0,0,30,3.750
1764838837.2890706,0,0,29,3.625
1764838837.293079,0,0,31,3.875
1764838837.2970698,0,0,32,4.000
1764838837.3010678,0,0,32,4.000
1764838837.305053,0,0,30,3.750
1764838837.3091488,0,0,29,3.625
1764838837.3130898,0,0,30,3.750
1764838837.3170671,0,0,33,4.125
1764838837.321071,0,0,32,4.000
1764838837.3250697,0,0,30,3.750
1764838837.3290713,0,0,29,3.625
1764838837.3330657,0,0,30,3.750
1764838837.3370957,0,0,32,4.000
1764838837.3410661,0,0,33,4.125
1764838837.3450847,0,0,30,3.750
1764838837.3490715,0,0,29,3.625
1764838837.3530784,0,0,30,3.750
1764838837.3570733,0,0,33,4.125
1764838837.3610716,0,0,33,4.125
1764838837.3650708,0,0,30,3.750
1764838837.3690689,1,0,30,3.750
1764838837.3730767,0,0,33,4.125
1764838837.3770738,0,0,33,4.125
1764838837.381072,0,0,30,3.750
1764838837.3850691,0,0,29,3.625
1764838837.3890674,1,1,30,3.750
1764838837.393076,0,0,32,4.000
1764838837.397075,0,0,33,4.125
1764838837.401075,0,0,30,3.750
1764838837.4050536,0,0,29,3.625
1764838837.4090524,1,1,30,3.750
1764838837.413074,0,0,33,4.125
1764838837.4170723,0,0,33,4.125
1764838837.4210744,0,0,30,3.750
1764838837.4250524,0,0,29,3.625
1764838837.429052,1,1,30,3.750
1764838837.4330738,0,0,33,4.125
1764838837.4371042,0,0,33,4.125
1764838837.4410768,0,0,30,3.750
1764838837.4450665,0,0,29,3.625
1764838837.449068,1,0,30,3.750
1764838837.4530706,0,0,33,4.125
1764838837.4570677,0,0,33,4.125
1764838837.4610717,0,0,30,3.750
1764838837.4650726,0,0,29,3.625
1764838837.469068,1,1,29,3.625
1764838837.4730694,0,0,33,4.125
1764838837.4770699,0,0,33,4.125
1764838837.4810703,0,0,30,3.750
1764838837.4850678,0,0,29,3.625
1764838837.489065,1,0,30,3.750
1764838837.49307,0,0,32,4.000
1764838837.4970727,0,0,33,4.125
1764838837.501069,0,0,31,3.875
1764838837.505067,0,0,29,3.625
1764838837.5091445,0,0,30,3.750
1764838837.5130823,0,0,32,4.000
1764838837.5170527,0,0,33,4.125
1764838837.5210633,0,0,31,3.875
1764838837.5250692,0,0,29,3.625
1764838837.5290694,1,1,30,3.750
1764838837.5330617,0,0,32,4.000
1764838837.537087,0,0,33,4.125
1764838837.541068,0,0,31,3.875
1764838837.5450706,0,0,28,3.500
1764838837.5490694,1,1,29,3.625
1764838837.5530603,0,0,32,4.000
1764838837.5570498,0,0,33,4.125
1764838837.5610623,0,0,31,3.875
1764838837.5650733,0,0,28,3.500
1764838837.5690699,1,1,29,3.625
1764838837.5730865,0,0,31,3.875
1764838837.5770764,0,0,33,4.125
1764838837.5810673,0,0,31,3.875
1764838837.5850544,0,0,29,3.625
1764838837.5890532,1,1,29,3.625
1764838837.593069,0,0,32,4.000
1764838837.5970674,0,0,32,4.000
1764838837.6010702,0,0,31,3.875
1764838837.6050506,0,0,29,3.625
1764838837.609051,1,1,29,3.625
1764838837.6130695,0,0,32,4.000
1764838837.6170685,0,0,33,4.125
1764838837.6210716,0,0,31,3.875
1764838837.6250656,0,0,29,3.625
1764838837.6290677,1,1,29,3.625
1764838837.6330733,0,0,32,4.000
1764838837.6370642,0,0,33,4.125
1764838837.6410694,0,0,31,3.875
1764838837.6450632,0,0,29,3.625
1764838837.6490684,1,1,29,3.625
1764838837.6530716,0,0,32,4.000
1764838837.657064,0,0,32,4.000
1764838837.6610706,0,0,31,3.875
1764838837.665065,0,0,29,3.625
1764838837.6690648,1,1,29,3.625
1764838837.6730697,0,0,32,4.000
1764838837.6770651,0,0,33,4.125
1764838837.6810694,0,0,32,4.000
1764838837.6850615,0,0,28,3.500
1764838837.6890652,1,1,29,3.625
1764838837.6930587,0,0,32,4.000
1764838837.6970513,0,0,33,4.125
1764838837.7010553,0,0,32,4.000
1764838837.7050624,0,0,29,3.625
1764838837.7091405,1,1,28,3.500
1764838837.713078,0,0,32,4.000
1764838837.71705,0,0,32,4.000
1764838837.721062,0,0,32,4.000
1764838837.725064,0,0,29,3.625
1764838837.7290652,1,1,29,3.625
1764838837.73306,0,0,31,3.875
1764838837.737049,0,0,33,4.125
1764838837.7411005,0,0,32,4.000
1764838837.7450647,0,0,29,3.625
1764838837.749065,1,1,29,3.625
1764838837.7530649,0,0,31,3.875
1764838837.7570512,0,0,33,4.125
1764838837.7610593,0,0,32,4.000
1764838837.7650642,0,0,29,3.625
1764838837.769063,1,1,29,3.625
1764838837.7730563,0,0,31,3.875
1764838837.7770495,0,0,33,4.125
1764838837.7810621,0,0,32,4.000
1764838837.785064,0,0,29,3.625
1764838837.789063,1,1,29,3.625
1764838837.793066,0,0,31,3.875
1764838837.7970643,0,0,33,4.125
1764838837.801067,0,0,33,4.125
1764838837.8050492,0,0,29,3.625
1764838837.809047,1,1,29,3.625
1764838837.8130617,0,0,31,3.875
1764838837.8170645,0,0,33,4.125
1764838837.8210704,0,0,33,4.125
1764838837.8250651,0,0,29,3.625
1764838837.8290632,1,1,29,3.625
1764838837.8330655,0,0,31,3.875
1764838837.8370612,0,0,32,4.000
1764838837.8410857,0,0,33,4.125
1764838837.8450644,0,0,29,3.625
1764838837.8490598,1,1,29,3.625
1764838837.8530653,0,0,31,3.875
1764838837.8570623,0,0,33,4.125
1764838837.8610668,0,0,32,4.000
1764838837.8650866,0,0,29,3.625
1764838837.869073,1,1,29,3.625
1764838837.8730552,0,0,31,3.875
1764838837.8770452,0,0,33,4.125
1764838837.8810613,0,0,32,4.000
1764838837.8850653,0,0,29,3.625
1764838837.8890631,1,1,29,3.625
1764838837.8930547,0,0,31,3.875
1764838837.8970468,0,0,33,4.125
1764838837.9010575,0,0,32,4.000
1764838837.905065,0,0,30,3.750
1764838837.914121,0,0,32,4.000
1764838837.9170818,0,0,32,4.000
1764838837.921062,0,0,31,3.875
1764838837.9250576,0,0,29,3.625
1764838837.9290621,1,1,29,3.625
1764838837.9330623,0,0,30,3.750
1764838837.9370606,0,0,32,4.000
1764838837.9411047,0,0,32,4.000
1764838837.9450529,0,0,29,3.625
1764838837.9490473,1,1,28,3.500
1764838837.9530656,0,0,30,3.750
1764838837.9570625,0,0,32,4.000
1764838837.9610648,0,0,32,4.000
1764838837.9650617,0,0,30,3.750
1764838837.9690661,1,1,29,3.625
1764838837.9730663,0,0,29,3.625
1764838837.97706,0,0,32,4.000
1764838837.9810693,0,0,33,4.125
1764838837.9850652,0,0,30,3.750
1764838837.9890716,0,1,28,3.500
1764838837.9930575,0,0,30,3.750
1764838837.997049,0,0,32,4.000
1764838838.0010548,0,0,33,4.125
1764838838.00506,0,0,30,3.750
1764838838.009065,1,1,29,3.625
1764838838.01306,0,0,30,3.750
1764838838.0170462,0,0,32,4.000
1764838838.0210547,0,0,32,4.000
1764838838.0250747,0,0,30,3.750
1764838838.0290608,1,1,29,3.625
1764838838.0330667,0,0,30,3.750
1764838838.03706,0,0,32,4.000
1764838838.0411065,0,0,33,4.125
1764838838.0450597,0,0,30,3.750
1764838838.049059,1,1,29,3.625
1764838838.0530562,0,0,30,3.750
1764838838.0570571,0,0,33,4.125
1764838838.0610554,0,0,30,3.750
1764838838.0650578,0,0,29,3.625
1764838838.0690572,1,1,29,3.625
1764838838.0730765,0,0,32,4.000
1764838838.0770614,0,0,32,4.000
1764838838.081066,0,0,30,3.750
1764838838.0850585,0,0,29,3.625
1764838838.089059,1,1,30,3.750
1764838838.0930665,0,0,32,4.000
1764838838.0970604,0,0,33,4.125
1764838838.1010618,0,0,31,3.875
1764838838.1050572,0,0,29,3.625
1764838838.1090565,1,0,29,3.625
1764838838.1131432,0,0,32,4.000
1764838838.1170745,0,0,32,4.000
1764838838.1210575,0,0,31,3.875
1764838838.1250439,0,0,29,3.625
1764838838.129041,1,1,29,3.625
1764838838.133059,0,0,33,4.125
1764838838.1370606,0,0,33,4.125
1764838838.1410632,0,0,31,3.875
1764838838.145083,0,0,29,3.625
1764838838.149042,1,1,29,3.625
1764838838.1530714,0,0,32,4.000
1764838838.15706,0,0,33,4.125
1764838838.1610663,0,0,31,3.875
1764838838.1650589,0,0,29,3.625
1764838838.1690686,1,1,29,3.625
1764838838.1730618,0,0,32,4.000
1764838838.1770585,0,0,33,4.125
1764838838.181062,0,0,31,3.875
1764838838.1850717,0,0,29,3.625
1764838838.1890619,1,1,29,3.625
1764838838.1930625,0,0,32,4.000
1764838838.1970577,0,0,32,4.000
1764838838.201073,0,0,30,3.750
1764838838.2050443,0,0,29,3.625
1764838838.2090428,1,1,29,3.625
1764838838.2130585,0,0,32,4.000
1764838838.2170675,0,0,33,4.125
1764838838.2210658,0,0,32,4.000
1764838838.2250595,0,0,29,3.625
1764838838.2290585,1,1,29,3.625
1764838838.233073,0,0,31,3.875
1764838838.2370543,0,0,32,4.000
1764838838.2410583,0,0,31,3.875
1764838838.2454543,0,0,28,3.500
1764838838.249213,1,1,28,3.500
1764838838.2530818,0,0,32,4.000
1764838838.2570584,0,0,32,4.000
1764838838.2610579,0,0,31,3.875
1764838838.2650614,0,0,29,3.625
1764838838.2690685,1,1,29,3.625
1764838838.2730603,0,0,31,3.875
1764838838.277055,0,0,33,4.125
1764838838.2810597,0,0,31,3.875
1764838838.2850578,0,0,29,3.625
1764838838.28906,1,1,28,3.500
1764838838.2930524,0,0,31,3.875
1764838838.2970407,0,0,33,4.125
1764838838.301056,0,0,32,4.000
1764838838.305068,0,0,29,3.625
1764838838.3090591,1,1,29,3.625
1764838838.3131516,0,0,31,3.875
1764838838.3170726,0,0,33,4.125
1764838838.3210604,0,0,31,3.875
1764838838.3250532,0,0,29,3.625
1764838838.3290558,1,1,29,3.625
1764838838.3330572,0,0,31,3.875
1764838838.3370662,0,0,32,4.000
1764838838.341054,0,0,31,3.875
1764838838.3450894,0,0,29,3.625
1764838838.3490565,1,1,29,3.625
1764838838.3530645,0,0,31,3.875
1764838838.3570595,0,0,33,4.125
1764838838.3610623,0,0,32,4.000
1764838838.3650556,0,0,29,3.625
1764838838.3690538,1,1,29,3.625
1764838838.3730628,0,0,31,3.875
1764838838.3770585,0,0,33,4.125
1764838838.3810647,0,0,32,4.000
1764838838.3850608,0,0,29,3.625
1764838838.3890648,1,1,29,3.625
1764838838.3930542,0,0,31,3.875
1764838838.3970432,0,0,33,4.125
1764838838.4010541,0,0,32,4.000
1764838838.4050562,0,0,29,3.625
1764838838.4090562,1,1,29,3.625
1764838838.4130526,0,0,31,3.875
1764838838.4170425,0,0,33,4.125
1764838838.4210525,0,0,32,4.000
1764838838.425058,0,0,29,3.625
1764838838.4290555,1,1,29,3.625
1764838838.433058,0,0,31,3.875
1764838838.437056,0,0,33,4.125
1764838838.4410617,0,0,32,4.000
1764838838.4450846,0,0,29,3.625
1764838838.4490547,1,1,29,3.625
1764838838.4530602,0,0,31,3.875
1764838838.4570563,0,0,32,4.000
1764838838.4610627,0,0,32,4.000
1764838838.4650557,0,0,29,3.625
1764838838.4690516,1,1,29,3.625
1764838838.4730587,0,0,30,3.750
1764838838.4770558,0,0,33,4.125
1764838838.481062,0,0,33,4.125
1764838838.4850538,0,0,29,3.625
1764838838.4890537,1,1,29,3.625
1764838838.4930565,0,0,31,3.875
1764838838.4970565,0,0,33,4.125
1764838838.501065,0,0,32,4.000
1764838838.5050576,0,0,29,3.625
1764838838.5090518,1,1,29,3.625
1764838838.5131314,0,0,31,3.875
1764838838.5170655,0,0,32,4.000
1764838838.5210598,0,0,32,4.000
1764838838.525041,0,0,30,3.750
1764838838.5290413,1,1,29,3.625
1764838838.5330567,0,0,31,3.875
1764838838.5370533,0,0,32,4.000
1764838838.5410595,0,0,32,4.000
1764838838.5450401,0,0,30,3.750
1764838838.5490768,1,1,29,3.625
1764838838.5530546,0,0,30,3.750
1764838838.5570521,0,0,33,4.125
1764838838.5610523,0,0,32,4.000
1764838838.5650558,0,0,30,3.750
1764838838.5690565,1,1,29,3.625
1764838838.5730562,0,0,30,3.750
1764838838.577052,0,0,32,4.000
1764838838.5810606,0,0,33,4.125
1764838838.5850558,0,0,30,3.750
1764838838.5890543,1,1,29,3.625
1764838838.5930603,0,0,30,3.750
1764838838.597082,0,0,32,4.000
1764838838.6010566,0,0,33,4.125
1764838838.60504,0,0,30,3.750
1764838838.6090386,1,1,29,3.625
1764838838.6130557,0,0,30,3.750
1764838838.6170537,0,0,32,4.000
1764838838.6210566,0,0,32,4.000
1764838838.6250403,0,0,29,3.625
1764838838.6290388,1,1,28,3.500
1764838838.6330554,0,0,30,3.750
1764838838.6370528,0,0,32,4.000
1764838838.6410537,0,0,32,4.000
1764838838.6450503,0,0,30,3.750
1764838838.6490858,1,1,28,3.500
1764838838.6530588,0,0,30,3.750
1764838838.657055,0,0,32,4.000
1764838838.6610587,0,0,33,4.125
1764838838.665052,0,0,30,3.750
1764838838.669053,1,1,29,3.625
1764838838.6730587,0,0,30,3.750
1764838838.677053,0,0,32,4.000
1764838838.681049,0,0,33,4.125
1764838838.6850502,0,0,30,3.750
1764838838.6890543,1,1,28,3.500
1764838838.6930575,0,0,29,3.625
1764838838.697052,0,0,32,4.000
1764838838.7010555,0,0,32,4.000
1764838838.7050514,0,0,30,3.750
1764838838.70905,1,1,28,3.500
1764838838.7131205,0,0,30,3.750
1764838838.7170508,0,0,32,4.000
1764838838.7210424,0,0,32,4.000
1764838838.7250366,0,0,30,3.750
1764838838.7290344,1,1,29,3.625
1764838838.7330549,0,0,29,3.625
1764838838.7370527,0,0,32,4.000
1764838838.7410545,0,0,33,4.125
1764838838.7450492,0,0,31,3.875
1764838838.7490845,1,1,30,3.750
1764838838.7530534,0,0,32,4.000
1764838838.7570515,0,0,32,4.000
1764838838.7610517,0,0,30,3.750
1764838838.7650514,0,0,29,3.625
1764838838.7690506,1,1,30,3.750
1764838838.7730553,0,0,32,4.000
1764838838.777037,0,0,32,4.000
1764838838.7810476,0,0,31,3.875
1764838838.785053,0,0,29,3.625
1764838838.7890496,1,1,29,3.625
1764838838.7930546,0,0,32,4.000
1764838838.797051,0,0,32,4.000
1764838838.8010502,0,0,30,3.750
1764838838.8050368,0,0,29,3.625
1764838838.809043,1,1,29,3.625
1764838838.8130345,0,0,32,4.000
1764838838.8170366,0,0,33,4.125
1764838838.8210473,0,0,31,3.875
1764838838.8250625,0,0,29,3.625
1764838838.829049,1,1,30,3.750
1764838838.833053,0,0,32,4.000
1764838838.8370485,0,0,33,4.125
1764838838.8410504,0,0,31,3.875
1764838838.8450506,0,0,29,3.625
1764838838.8490622,1,1,29,3.625
1764838838.853053,0,0,32,4.000
1764838838.85705,0,0,32,4.000
1764838838.8610523,0,0,31,3.875
1764838838.865051,0,0,29,3.625
1764838838.8690507,1,1,29,3.625
1764838838.8730536,0,0,32,4.000
1764838838.877048,0,0,33,4.125
1764838838.8810513,0,0,31,3.875
1764838838.88505,0,0,29,3.625
1764838838.889051,1,1,29,3.625
1764838838.8930397,0,0,31,3.875
1764838838.8970525,0,0,33,4.125
1764838838.9011104,0,0,32,4.000
1764838838.9050841,0,0,29,3.625
1764838838.9090476,1,1,29,3.625
1764838838.944647,0,0,27,3.375
1764838838.9465125,0,0,27,3.375
1764838838.949052,1,1,26,3.250
1764838838.953054,0,0,30,3.750
1764838838.9570343,0,0,31,3.875
1764838838.9610448,0,0,30,3.750
1764838838.9650528,0,0,28,3.500
1764838838.9690511,1,1,27,3.375
1764838838.9730456,0,0,30,3.750
1764838838.9770353,0,0,32,4.000
1764838838.9810448,0,0,31,3.875
1764838838.9850504,0,0,28,3.500
1764838838.9890518,1,1,28,3.500
1764838838.9930553,0,0,31,3.875
1764838838.997053,0,0,32,4.000
1764838839.0010529,0,0,32,4.000
1764838839.0050464,0,0,28,3.500
1764838839.009047,1,1,28,3.500
1764838839.013059,0,0,31,3.875
1764838839.0170481,0,0,33,4.125
1764838839.0210574,0,0,31,3.875
1764838839.0250514,0,0,28,3.500
1764838839.0290549,1,1,29,3.625
1764838839.0330439,0,0,31,3.875
1764838839.0370362,0,0,32,4.000
1764838839.0410438,0,0,31,3.875
1764838839.0450478,0,0,29,3.625
1764838839.049044,1,1,28,3.500
1764838839.0531495,0,0,31,3.875
1764838839.0570738,0,0,33,4.125
1764838839.0610938,0,0,33,4.125
1764838839.065093,0,0,29,3.625
1764838839.0690916,1,1,29,3.625
1764838839.0731003,0,0,31,3.875
1764838839.0770931,0,0,33,4.125
1764838839.0810983,0,0,32,4.000
1764838839.085091,0,0,29,3.625
1764838839.0890913,1,1,29,3.625
1764838839.0930967,0,0,31,3.875
1764838839.0970938,0,0,32,4.000
1764838839.1010997,0,0,33,4.125
1764838839.1050916,0,0,29,3.625
1764838839.1090922,1,1,29,3.625
1764838839.1130943,0,0,31,3.875
1764838839.1170917,0,0,32,4.000
1764838839.1210945,0,0,32,4.000
1764838839.125095,0,0,29,3.625
1764838839.1290896,1,1,28,3.500
1764838839.1330965,0,0,31,3.875
1764838839.1370933,0,0,33,4.125
1764838839.1411715,0,0,33,4.125
1764838839.1450913,0,0,30,3.750
1764838839.1490712,1,1,29,3.625
1764838839.153167,0,0,31,3.875
1764838839.1570346,0,0,33,4.125
1764838839.1610467,0,0,33,4.125
1764838839.1650515,0,0,30,3.750
1764838839.1690443,1,1,29,3.625
1764838839.17304,0,0,30,3.750
1764838839.1770303,0,0,32,4.000
1764838839.1810458,0,0,33,4.125
1764838839.185051,0,0,29,3.625
1764838839.1890483,1,1,29,3.625
1764838839.1930459,0,0,31,3.875
1764838839.1970444,0,0,33,4.125
1764838839.2010534,0,0,32,4.000
1764838839.2050471,0,0,30,3.750
1764838839.2090435,1,1,28,3.500
1764838839.2130497,0,0,31,3.875
1764838839.2170453,0,0,33,4.125
1764838839.221049,0,0,32,4.000
1764838839.2250304,0,0,30,3.750
1764838839.2290306,1,1,28,3.500
1764838839.2330477,0,0,30,3.750
1764838839.237045,0,0,32,4.000
1764838839.2410493,0,0,33,4.125
1764838839.2454197,0,0,30,3.750
1764838839.2491837,1,1,29,3.625
1764838839.2531097,0,0,30,3.750
1764838839.2570398,0,0,33,4.125
1764838839.2610433,0,0,32,4.000
1764838839.2650447,0,0,29,3.625
1764838839.269042,1,1,29,3.625
1764838839.273043,0,0,31,3.875
1764838839.277039,0,0,33,4.125
1764838839.281045,0,0,33,4.125
1764838839.2850475,0,0,30,3.750
1764838839.2890437,1,1,29,3.625
1764838839.293053,0,0,30,3.750
1764838839.2970443,0,0,33,4.125
1764838839.3010483,0,0,33,4.125
1764838839.3050616,0,0,30,3.750
1764838839.3090587,1,1,29,3.625
1764838839.3130462,0,0,30,3.750
1764838839.317042,0,0,32,4.000
1764838839.3210409,0,0,33,4.125
1764838839.3250391,0,0,30,3.750
1764838839.3290398,1,1,29,3.625
1764838839.3330443,0,0,30,3.750
1764838839.337044,0,0,32,4.000
1764838839.3411186,0,0,32,4.000
1764838839.345051,0,0,30,3.750
1764838839.349041,1,1,28,3.500
1764838839.353045,0,0,30,3.750
1764838839.3570857,0,0,33,4.125
1764838839.3610437,0,0,32,4.000
1764838839.3650281,0,0,30,3.750
1764838839.3690279,1,1,29,3.625
1764838839.3730488,0,0,30,3.750
1764838839.377043,0,0,32,4.000
1764838839.3810506,0,0,33,4.125
1764838839.3850439,0,0,30,3.750
1764838839.3890421,1,1,28,3.500
1764838839.3930485,0,0,29,3.625
1764838839.3970423,0,0,32,4.000
1764838839.4010491,0,0,32,4.000
1764838839.4050398,0,0,31,3.875
1764838839.4090393,1,1,29,3.625
1764838839.413047,0,0,30,3.750
1764838839.417044,0,0,32,4.000
1764838839.421051,0,0,33,4.125
1764838839.4250488,0,0,32,4.000
1764838839.4290493,1,1,29,3.625
1764838839.43304,0,0,29,3.625
1764838839.4370282,0,0,32,4.000
1764838839.4410481,0,0,31,3.875
1764838839.4450507,0,0,29,3.625
1764838839.4490433,1,1,30,3.750
1764838839.4530365,0,0,32,4.000
1764838839.4570615,0,0,32,4.000
1764838839.4610424,0,0,31,3.875
1764838839.4650476,0,0,29,3.625
1764838839.46904,1,1,29,3.625
1764838839.4730437,0,0,32,4.000
1764838839.4770439,0,0,32,4.000
1764838839.4810486,0,0,31,3.875
1764838839.4850416,0,0,29,3.625
1764838839.4890394,1,1,29,3.625
1764838839.4930441,0,0,32,4.000
1764838839.4970486,0,0,32,4.000
1764838839.5010514,0,0,31,3.875
1764838839.505042,0,0,29,3.625
1764838839.5090413,1,1,29,3.625
1764838839.5130463,0,0,32,4.000
1764838839.5170393,0,0,33,4.125
1764838839.5210433,0,0,31,3.875
1764838839.5250425,0,0,29,3.625
1764838839.5290418,1,1,29,3.625
1764838839.533045,0,0,32,4.000
1764838839.5370367,0,0,33,4.125
1764838839.5411253,0,0,32,4.000
1764838839.5450597,0,0,28,3.500
1764838839.549044,1,1,29,3.625
1764838839.5530329,0,0,31,3.875
1764838839.5570617,0,0,33,4.125
1764838839.5610378,0,0,31,3.875
1764838839.5650427,0,0,29,3.625
1764838839.5690393,1,1,29,3.625
1764838839.5730362,0,0,32,4.000
1764838839.5770237,0,0,32,4.000
1764838839.5810347,0,0,31,3.875
1764838839.585043,0,0,29,3.625
1764838839.5890412,1,1,29,3.625
1764838839.593045,0,0,32,4.000
1764838839.59704,0,0,32,4.000
1764838839.601045,0,0,31,3.875
1764838839.6050398,0,0,29,3.625
1764838839.609039,1,1,29,3.625
1764838839.6130462,0,0,32,4.000
1764838839.6170373,0,0,32,4.000
1764838839.6210458,0,0,31,3.875
1764838839.6250384,0,0,29,3.625
1764838839.629041,1,1,29,3.625
1764838839.633044,0,0,31,3.875
1764838839.6370409,0,0,32,4.000
1764838839.641043,0,0,32,4.000
1764838839.6450384,0,0,29,3.625
1764838839.6490412,1,1,29,3.625
1764838839.6530461,0,0,31,3.875
1764838839.6571136,0,0,32,4.000
1764838839.6610918,0,0,32,4.000
1764838839.6650848,0,0,29,3.625
1764838839.6690848,1,1,29,3.625
1764838839.6730876,0,0,31,3.875
1764838839.6770835,0,0,33,4.125
1764838839.6810904,0,0,32,4.000
1764838839.6850808,0,0,29,3.625
1764838839.6890807,1,1,29,3.625
1764838839.6930926,0,0,31,3.875
1764838839.6970847,0,0,32,4.000
1764838839.7010906,0,0,32,4.000
1764838839.705081,0,0,29,3.625
1764838839.70908,1,1,29,3.625
1764838839.7130907,0,0,31,3.875
1764838839.7170844,0,0,32,4.000
1764838839.7210884,0,0,32,4.000
1764838839.7250793,0,0,30,3.750
1764838839.7290807,1,1,28,3.500
1764838839.7330763,0,0,31,3.875
1764838839.737091,0,0,32,4.000
1764838839.7411938,0,0,32,4.000
1764838839.7450895,0,0,29,3.625
1764838839.7490644,1,1,29,3.625
1764838839.753082,0,0,31,3.875
1764838839.7570834,0,0,33,4.125
1764838839.7611587,0,0,32,4.000
1764838839.7650247,0,0,29,3.625
1764838839.7690213,1,1,29,3.625
1764838839.7730405,0,0,31,3.875
1764838839.7770393,0,0,33,4.125
1764838839.7810478,0,0,32,4.000
1764838839.78504,0,0,29,3.625
1764838839.789037,1,1,29,3.625
1764838839.7930393,0,0,31,3.875
1764838839.7970238,0,0,33,4.125
1764838839.8010235,0,0,33,4.125
1764838839.8050413,0,0,29,3.625
1764838839.8090277,1,1,29,3.625
1764838839.8130352,0,0,31,3.875
1764838839.8170342,0,0,33,4.125
1764838839.8210413,0,0,32,4.000
1764838839.8250391,0,0,29,3.625
1764838839.829035,1,1,29,3.625
1764838839.8330293,0,0,30,3.750
1764838839.8370194,0,0,33,4.125
1764838839.8410451,0,0,33,4.125
1764838839.8450403,0,0,29,3.625
1764838839.8490384,1,1,29,3.625
1764838839.853028,0,0,30,3.750
1764838839.8570318,0,0,33,4.125
1764838839.8610678,0,0,32,4.000
1764838839.8650417,0,0,30,3.750
1764838839.8690376,1,1,29,3.625
1764838839.8730435,0,0,30,3.750
1764838839.877034,0,0,33,4.125
1764838839.8810508,0,0,32,4.000
1764838839.8850389,0,0,30,3.750
1764838839.8890371,1,1,28,3.500
1764838839.8930376,0,0,30,3.750
1764838839.897048,0,0,33,4.125
1764838839.901042,0,0,33,4.125
1764838839.9050398,0,0,30,3.750
1764838839.9090393,1,1,29,3.625
1764838839.9130535,0,0,30,3.750
1764838839.9170358,0,0,33,4.125
1764838839.9210405,0,0,33,4.125
1764838839.925038,0,0,29,3.625
1764838839.9290495,1,1,28,3.500
1764838839.9330413,0,0,30,3.750
1764838839.937035,0,0,32,4.000
1764838839.9459295,0,0,30,3.750
1764838839.9490635,1,1,28,3.500
1764838839.9530427,0,0,29,3.625
1764838839.9570215,0,0,32,4.000
1764838839.961032,0,0,33,4.125
1764838839.9650378,0,0,29,3.625
1764838839.9690397,1,1,29,3.625
1764838839.973032,0,0,29,3.625
1764838839.977021,0,0,32,4.000
1764838839.9810407,0,0,32,4.000
1764838839.9850383,0,0,30,3.750
1764838839.9890366,1,1,29,3.625
1764838839.9930427,0,0,29,3.625
1764838839.997039,0,0,33,4.125
1764838840.0010414,0,0,32,4.000
1764838840.005034,0,0,30,3.750
1764838840.0090375,1,1,29,3.625
1764838840.0130436,0,0,30,3.750
1764838840.017037,0,0,32,4.000
1764838840.0210412,0,0,32,4.000
1764838840.025033,0,0,30,3.750
1764838840.0290341,1,1,29,3.625
1764838840.0330427,0,0,29,3.625
1764838840.0370357,0,0,32,4.000
1764838840.0410452,0,0,33,4.125
1764838840.0450332,0,0,30,3.750
1764838840.0490339,1,1,29,3.625
1764838840.0530293,0,0,29,3.625
1764838840.0570202,0,0,33,4.125
1764838840.0610318,0,0,33,4.125
1764838840.0650349,0,0,31,3.875
1764838840.0690317,1,1,29,3.625
1764838840.0730402,0,0,30,3.750
1764838840.0770354,0,0,32,4.000
1764838840.0810425,0,0,33,4.125
1764838840.0850315,0,0,31,3.875
1764838840.0890324,1,1,29,3.625
1764838840.093027,0,0,30,3.750
1764838840.0970192,0,0,32,4.000
1764838840.1010334,0,0,34,4.250
1764838840.1050413,0,0,31,3.875
1764838840.109042,1,1,29,3.625
1764838840.1130295,0,0,29,3.625
1764838840.11702,0,0,32,4.000
1764838840.12103,0,0,33,4.125
1764838840.1250362,0,0,29,3.625
1764838840.129034,1,1,29,3.625
1764838840.133024,0,0,32,4.000
1764838840.1370163,0,0,33,4.125
1764838840.1410313,0,0,31,3.875
1764838840.1451123,0,0,29,3.625
1764838840.1490638,1,1,29,3.625
1764838840.153036,0,0,32,4.000
1764838840.1570177,0,0,34,4.250
1764838840.161065,0,0,32,4.000
1764838840.165039,0,0,29,3.625
1764838840.169037,1,1,29,3.625
1764838840.173027,0,0,32,4.000
1764838840.1770163,0,0,33,4.125
1764838840.1810348,0,0,31,3.875
1764838840.1850376,0,0,29,3.625
1764838840.1890342,1,1,29,3.625
1764838840.1930375,0,0,32,4.000
1764838840.1970317,0,0,34,4.250
1764838840.2010388,0,0,31,3.875
1764838840.205032,0,0,29,3.625
1764838840.2090394,1,1,29,3.625
1764838840.2130456,0,0,32,4.000
1764838840.2170312,0,0,32,4.000
1764838840.2210302,0,0,31,3.875
1764838840.225034,0,0,29,3.625
1764838840.229031,1,1,29,3.625
1764838840.233027,0,0,32,4.000
1764838840.2370152,0,0,33,4.125
1764838840.241027,0,0,32,4.000
1764838840.2453902,0,0,29,3.625
1764838840.2491553,1,1,29,3.625
1764838840.2530644,0,0,32,4.000
1764838840.2570312,0,0,32,4.000
1764838840.2610328,0,0,31,3.875
1764838840.2650356,0,0,29,3.625
1764838840.2690313,1,1,29,3.625
1764838840.273035,0,0,32,4.000
1764838840.2770286,0,0,33,4.125
1764838840.2810302,0,0,31,3.875
1764838840.28503,0,0,30,3.750
1764838840.289033,1,1,29,3.625
1764838840.2930381,0,0,31,3.875
1764838840.297032,0,0,33,4.125
1764838840.3010345,0,0,32,4.000
1764838840.305015,0,0,29,3.625
1764838840.3090174,1,1,28,3.500
1764838840.3130324,0,0,31,3.875
1764838840.3170335,0,0,32,4.000
1764838840.321036,0,0,32,4.000
1764838840.3250313,0,0,29,3.625
1764838840.3290334,1,1,28,3.500
1764838840.3330371,0,0,31,3.875
1764838840.3370326,0,0,32,4.000
1764838840.3410397,0,0,32,4.000
1764838840.3450997,0,0,29,3.625
1764838840.3490446,1,1,29,3.625
1764838840.3530319,0,0,32,4.000
1764838840.357018,0,0,32,4.000
1764838840.361027,0,0,31,3.875
1764838840.3650665,0,0,29,3.625
1764838840.3690293,1,1,29,3.625
1764838840.3730266,0,0,31,3.875
1764838840.3770163,0,0,33,4.125
1764838840.3810287,0,0,32,4.000
1764838840.3850312,0,0,29,3.625
1764838840.3890276,1,1,29,3.625
1764838840.3930378,0,0,31,3.875
1764838840.3970308,0,0,33,4.125
1764838840.4010367,0,0,32,4.000
1764838840.4050252,0,0,30,3.750
1764838840.409027,1,1,29,3.625
1764838840.4130344,0,0,30,3.750
1764838840.4170294,0,0,33,4.125
1764838840.4210362,0,0,32,4.000
1764838840.4250302,0,0,29,3.625
1764838840.4290407,1,1,28,3.500
1764838840.4330263,0,0,30,3.750
1764838840.437016,0,0,33,4.125
1764838840.4410262,0,0,33,4.125
1764838840.4450302,0,0,29,3.625
1764838840.449028,1,1,29,3.625
1764838840.4530213,0,0,31,3.875
1764838840.4570143,0,0,33,4.125
1764838840.461026,0,0,32,4.000
1764838840.4650664,0,0,29,3.625
1764838840.469028,1,1,29,3.625
1764838840.473033,0,0,30,3.750
1764838840.4770298,0,0,33,4.125
1764838840.4810376,0,0,32,4.000
1764838840.485029,0,0,30,3.750
1764838840.4890273,1,1,29,3.625
1764838840.4930336,0,0,31,3.875
1764838840.4970298,0,0,32,4.000
1764838840.5010364,0,0,33,4.125
1764838840.5050316,0,0,30,3.750
1764838840.5090303,1,1,29,3.625
1764838840.5130339,0,0,30,3.750
1764838840.5170276,0,0,33,4.125
1764838840.521035,0,0,33,4.125
1764838840.52503,0,0,29,3.625
1764838840.5290308,1,1,29,3.625
1764838840.5330315,0,0,30,3.750
1764838840.5370274,0,0,33,4.125
1764838840.5410352,0,0,32,4.000
1764838840.5450983,0,0,30,3.750
1764838840.5490448,1,1,29,3.625
1764838840.5530252,0,0,30,3.750
1764838840.5570123,0,0,33,4.125
1764838840.5610218,0,0,32,4.000
1764838840.5650675,0,0,30,3.750
1764838840.5690324,1,1,29,3.625
1764838840.573025,0,0,30,3.750
1764838840.577012,0,0,32,4.000
1764838840.58102,0,0,33,4.125
1764838840.5850313,0,0,30,3.750
1764838840.5890305,1,1,28,3.500
1764838840.5930345,0,0,31,3.875
1764838840.5970256,0,0,32,4.000
1764838840.6010308,0,0,32,4.000
1764838840.6050253,0,0,30,3.750
1764838840.6090271,1,1,29,3.625
1764838840.6130323,0,0,30,3.750
1764838840.6170247,0,0,33,4.125
1764838840.621033,0,0,33,4.125
1764838840.6250627,0,0,30,3.750
1764838840.6290386,1,1,29,3.625
1764838840.6330242,0,0,29,3.625
1764838840.637013,0,0,32,4.000
1764838840.6410189,0,0,33,4.125
1764838840.6450264,0,0,30,3.750
1764838840.6490278,1,1,29,3.625
1764838840.653022,0,0,30,3.750
1764838840.6570113,0,0,32,4.000
1764838840.6610177,0,0,33,4.125
1764838840.6650276,0,0,30,3.750
1764838840.6690612,1,1,29,3.625
1764838840.6730337,0,0,30,3.750
1764838840.677029,0,0,32,4.000
1764838840.6810305,0,0,33,4.125
1764838840.685027,0,0,31,3.875
1764838840.6890252,1,1,29,3.625
1764838840.6930296,0,0,29,3.625
1764838840.697027,0,0,32,4.000
1764838840.7010324,0,0,32,4.000
1764838840.7050238,0,0,30,3.750
1764838840.7090263,1,1,29,3.625
1764838840.7130322,0,0,30,3.750
1764838840.7170272,0,0,32,4.000
1764838840.7210264,0,0,32,4.000
1764838840.7250242,0,0,30,3.750
1764838840.7290232,1,1,28,3.500
1764838840.7330298,0,0,29,3.625
1764838840.7370288,0,0,32,4.000
1764838840.741034,0,0,33,4.125
1764838840.7451012,0,0,31,3.875
1764838840.7490368,1,1,29,3.625
1764838840.7530246,0,0,29,3.625
1764838840.7570128,0,0,32,4.000
1764838840.7610233,0,0,32,4.000
1764838840.7650282,0,0,31,3.875
1764838840.7690613,1,1,29,3.625
1764838840.7730196,0,0,29,3.625
1764838840.7770114,0,0,32,4.000
1764838840.7810228,0,0,33,4.125
1764838840.7850277,0,0,31,3.875
1764838840.7890248,1,1,29,3.625
1764838840.7930295,0,0,30,3.750
1764838840.7970247,0,0,32,4.000
1764838840.8010259,0,0,33,4.125
1764838840.8050094,0,0,31,3.875
1764838840.8090067,1,1,29,3.625
1764838840.8130205,0,0,32,4.000
1764838840.8170073,0,0,33,4.125
1764838840.8210242,0,0,31,3.875
1764838840.8250272,0,0,29,3.625
1764838840.8290267,1,1,29,3.625
1764838840.8330271,0,0,31,3.875
1764838840.8370285,0,0,33,4.125
1764838840.8410323,0,0,32,4.000
1764838840.8450117,0,0,29,3.625
1764838840.8490098,1,1,29,3.625
1764838840.8530247,0,0,32,4.000
1764838840.857024,0,0,33,4.125
1764838840.8610284,0,0,32,4.000
1764838840.86501,0,0,29,3.625
1764838840.8690789,1,1,28,3.500
1764838840.8730752,0,0,32,4.000
1764838840.8770666,0,0,33,4.125
1764838840.881071,0,0,32,4.000
1764838840.885069,0,0,29,3.625
1764838840.889065,1,1,29,3.625
1764838840.893058,0,0,32,4.000
1764838840.8970468,0,0,33,4.125
1764838840.9010544,0,0,31,3.875
1764838840.905067,0,0,29,3.625
1764838840.909067,1,1,29,3.625
1764838840.9130716,0,0,32,4.000
1764838840.9170613,0,0,33,4.125
1764838840.9210696,0,0,32,4.000
1764838840.9250665,0,0,28,3.500
1764838840.9290655,1,1,29,3.625
1764838840.9330685,0,0,31,3.875
1764838840.937063,0,0,32,4.000
1764838840.9410703,0,0,31,3.875
1764838840.9510653,0,0,29,3.625
1764838840.95309,0,0,31,3.875
1764838840.9570735,0,0,32,4.000
1764838840.9610639,0,0,31,3.875
1764838840.9650435,0,0,28,3.500
1764838840.969045,1,1,29,3.625
1764838840.973035,0,0,31,3.875
1764838840.9770253,0,0,33,4.125
1764838840.9810228,0,0,31,3.875
1764838840.985006,0,0,29,3.625
1764838840.9890082,1,1,29,3.625
1764838840.993027,0,0,31,3.875
1764838840.9970255,0,0,33,4.125
1764838841.001033,0,0,32,4.000
1764838841.0050232,0,0,29,3.625
1764838841.0090206,1,1,29,3.625
1764838841.013033,0,0,31,3.875
1764838841.0170238,0,0,32,4.000
1764838841.0210307,0,0,32,4.000
1764838841.0250216,0,0,29,3.625
1764838841.0290215,1,1,29,3.625
1764838841.033031,0,0,31,3.875
1764838841.037025,0,0,32,4.000
1764838841.0410283,0,0,32,4.000
1764838841.0450227,0,0,30,3.750
1764838841.0490236,1,1,29,3.625
1764838841.0530236,0,0,30,3.750
1764838841.057009,0,0,33,4.125
1764838841.0610206,0,0,32,4.000
1764838841.0650227,0,0,29,3.625
1764838841.0690222,1,1,29,3.625
1764838841.0730507,0,0,30,3.750
1764838841.07701,0,0,32,4.000
1764838841.0810244,0,0,32,4.000
1764838841.0850253,0,0,30,3.750
1764838841.0890188,1,1,29,3.625
1764838841.0930264,0,0,30,3.750
1764838841.0970187,0,0,32,4.000
1764838841.1010275,0,0,32,4.000
1764838841.1050222,0,0,29,3.625
1764838841.109021,1,1,29,3.625
1764838841.1130242,0,0,31,3.875
1764838841.117022,0,0,32,4.000
1764838841.121027,0,0,32,4.000
1764838841.125022,0,0,30,3.750
1764838841.1290178,1,1,29,3.625
1764838841.1330106,0,0,31,3.875
1764838841.137003,0,0,32,4.000
1764838841.1410217,0,0,32,4.000
1764838841.1450238,0,0,30,3.750
1764838841.1490993,1,1,29,3.625
1764838841.1530266,0,0,31,3.875
1764838841.1570039,0,0,32,4.000
1764838841.1610203,0,0,32,4.000
1764838841.1650243,0,0,30,3.750
1764838841.1690202,1,1,29,3.625
1764838841.1730483,0,0,30,3.750
1764838841.1770024,0,0,32,4.000
1764838841.181026,0,0,32,4.000
1764838841.1850243,0,0,29,3.625
1764838841.189023,1,1,29,3.625
1764838841.193023,0,0,30,3.750
1764838841.197018,0,0,33,4.125
1764838841.2010245,0,0,32,4.000
1764838841.2050211,0,0,30,3.750
1764838841.2090225,1,1,29,3.625
1764838841.213028,0,0,30,3.750
1764838841.2170186,0,0,32,4.000
1764838841.221027,0,0,32,4.000
1764838841.2250211,0,0,30,3.750
1764838841.2290206,1,1,29,3.625
1764838841.2330244,0,0,30,3.750
1764838841.2370193,0,0,32,4.000
1764838841.2410238,0,0,33,4.125
1764838841.2453847,0,0,30,3.750
1764838841.2491643,1,1,29,3.625
1764838841.253056,0,0,30,3.750
1764838841.2570205,0,0,32,4.000
1764838841.2610202,0,0,32,4.000
1764838841.2650201,0,0,30,3.750
1764838841.269019,1,1,29,3.625
1764838841.2730608,0,0,30,3.750
1764838841.2770212,0,0,32,4.000
1764838841.281019,0,0,32,4.000
1764838841.2850196,0,0,30,3.750
1764838841.289019,1,1,29,3.625
1764838841.2930276,0,0,30,3.750
1764838841.2970197,0,0,32,4.000
1764838841.3010206,0,0,32,4.000
1764838841.305001,0,0,30,3.750
1764838841.3090246,1,1,30,3.750
1764838841.313107,0,0,30,3.750
1764838841.3170722,0,0,32,4.000
1764838841.3210287,0,0,32,4.000
1764838841.3250017,0,0,30,3.750
1764838841.329,1,1,29,3.625
1764838841.333026,0,0,29,3.625
1764838841.337021,0,0,32,4.000
1764838841.3410213,0,0,32,4.000
1764838841.3450034,0,0,31,3.875
1764838841.3490906,1,1,29,3.625
1764838841.3530283,0,0,30,3.750
1764838841.357006,0,0,32,4.000
1764838841.3610158,0,0,32,4.000
1764838841.3650193,0,0,30,3.750
1764838841.3690183,1,1,29,3.625
1764838841.373016,0,0,30,3.750
1764838841.377041,0,0,32,4.000
1764838841.3810177,0,0,32,4.000
1764838841.3850186,0,0,30,3.750
1764838841.3890162,1,1,29,3.625
1764838841.393023,0,0,30,3.750
1764838841.3970184,0,0,32,4.000
1764838841.4010224,0,0,32,4.000
1764838841.4050164,0,0,30,3.750
1764838841.409012,1,1,29,3.625
1764838841.4130218,0,0,29,3.625
1764838841.4170191,0,0,32,4.000
1764838841.4210277,0,0,32,4.000
1764838841.4250185,0,0,31,3.875
1764838841.4290142,1,1,30,3.750
1764838841.433019,0,0,30,3.750
1764838841.437016,0,0,32,4.000
1764838841.441022,0,0,31,3.875
1764838841.4450176,0,0,31,3.875
1764838841.4490163,1,1,29,3.625
1764838841.4530225,0,0,30,3.750
1764838841.4570153,0,0,32,4.000
1764838841.4610178,0,0,32,4.000
1764838841.4650018,0,0,31,3.875
1764838841.468998,1,1,29,3.625
1764838841.4730167,0,0,30,3.750
1764838841.477048,0,0,33,4.125
1764838841.481021,0,0,32,4.000
1764838841.4850018,0,0,31,3.875
1764838841.4890013,1,1,30,3.750
1764838841.4930167,0,0,30,3.750
1764838841.4970167,0,0,32,4.000
1764838841.5010297,0,0,31,3.875
1764838841.505017,0,0,29,3.625
1764838841.509016,1,1,30,3.750
1764838841.5130203,0,0,31,3.875
1764838841.5170138,0,0,32,4.000
1764838841.521021,0,0,31,3.875
1764838841.5250185,0,0,30,3.750
1764838841.5290174,1,1,30,3.750
1764838841.5330184,0,0,32,4.000
1764838841.5370135,0,0,32,4.000
1764838841.541022,0,0,31,3.875
1764838841.5450163,0,0,30,3.750
1764838841.5490968,1,1,30,3.750
1764838841.5530276,0,0,31,3.875
1764838841.557001,0,0,32,4.000
1764838841.561009,0,0,31,3.875
1764838841.5650184,0,0,30,3.750
1764838841.569017,1,1,30,3.750
1764838841.5730126,0,0,32,4.000
1764838841.5769975,0,0,32,4.000
1764838841.5810099,0,0,31,3.875
1764838841.5850189,0,0,30,3.750
1764838841.5890167,1,1,30,3.750
1764838841.5930223,0,0,31,3.875
1764838841.5970128,0,0,32,4.000
1764838841.6010184,0,0,31,3.875
1764838841.6050127,0,0,30,3.750
1764838841.6090155,1,1,30,3.750
1764838841.6130214,0,0,31,3.875
1764838841.6170142,0,0,32,4.000
1764838841.6210215,0,0,31,3.875
1764838841.6250155,0,0,30,3.750
1764838841.6290169,1,1,30,3.750
1764838841.6330202,0,0,31,3.875
1764838841.637017,0,0,32,4.000
1764838841.641018,0,0,31,3.875
1764838841.64501,0,0,30,3.750
1764838841.6490135,1,1,30,3.750
1764838841.6530175,0,0,31,3.875
1764838841.6570218,0,0,32,4.000
1764838841.661019,0,0,31,3.875
1764838841.664997,0,0,29,3.625
1764838841.6689975,1,1,30,3.750
1764838841.6730158,0,0,31,3.875
1764838841.6770158,0,0,32,4.000
1764838841.6811092,0,0,31,3.875
1764838841.6850374,0,0,30,3.750
1764838841.6890378,1,1,30,3.750
1764838841.6930637,0,0,31,3.875
1764838841.6970599,0,0,32,4.000
1764838841.701066,0,0,31,3.875
1764838841.7050574,0,0,30,3.750
1764838841.7090554,1,1,30,3.750
1764838841.7130663,0,0,31,3.875
1764838841.7170596,0,0,32,4.000
1764838841.7210639,0,0,31,3.875
1764838841.7250557,0,0,30,3.750
1764838841.729056,1,1,30,3.750
1764838841.7330544,0,0,31,3.875
1764838841.7370582,0,0,32,4.000
1764838841.7410645,0,0,31,3.875
1764838841.7450588,0,0,30,3.750
1764838841.7491326,1,1,29,3.625
1764838841.7530713,0,0,31,3.875
1764838841.7570417,0,0,31,3.875
1764838841.7610545,0,0,31,3.875
1764838841.7650619,0,0,30,3.750
1764838841.7690544,1,1,30,3.750
1764838841.7730448,0,0,31,3.875
1764838841.777041,0,0,32,4.000
1764838841.781152,0,0,32,4.000
1764838841.7850208,0,0,30,3.750
1764838841.789018,1,1,30,3.750
1764838841.7930167,0,0,31,3.875
1764838841.7970102,0,0,32,4.000
1764838841.8010151,0,0,31,3.875
1764838841.8049986,0,0,30,3.750
1764838841.8089957,1,1,30,3.750
1764838841.8130116,0,0,31,3.875
1764838841.8170106,0,0,31,3.875
1764838841.8210218,0,0,32,4.000
1764838841.8250134,0,0,30,3.750
1764838841.8290126,1,1,30,3.750
1764838841.8330135,0,0,31,3.875
1764838841.836993,0,0,32,4.000
1764838841.8410077,0,0,31,3.875
1764838841.845012,0,0,30,3.750
1764838841.849012,1,1,30,3.750
1764838841.8530133,0,0,31,3.875
1764838841.8570104,0,0,32,4.000
1764838841.8610158,0,0,32,4.000
1764838841.8650117,0,0,31,3.875
1764838841.8690152,1,1,30,3.750
1764838841.873011,0,0,31,3.875
1764838841.8769958,0,0,32,4.000
1764838841.8810027,0,0,31,3.875
1764838841.8850114,0,0,30,3.750
1764838841.8890116,1,1,30,3.750
1764838841.893005,0,0,31,3.875
1764838841.8969944,0,0,32,4.000
1764838841.9010048,0,0,31,3.875
1764838841.9050157,0,0,30,3.750
1764838841.9090133,1,1,30,3.750
1764838841.9130177,0,0,31,3.875
1764838841.9170113,0,0,32,4.000
1764838841.9210145,0,0,32,4.000
1764838841.9250112,0,0,31,3.875
1764838841.929012,1,1,31,3.875
1764838841.933001,0,0,30,3.750
1764838841.9369936,0,0,31,3.875
1764838841.9410028,0,0,31,3.875
1764838841.9450102,0,0,31,3.875
1764838841.9539049,0,0,31,3.875
1764838841.9570343,0,0,32,4.000
1764838841.9610202,0,0,31,3.875
1764838841.964993,0,0,30,3.750
1764838841.9689965,1,1,30,3.750
1764838841.9730158,0,0,30,3.750
1764838841.977014,0,0,32,4.000
1764838841.9810524,0,0,31,3.875
1764838841.984995,0,0,30,3.750
1764838841.988996,1,1,29,3.625
1764838841.9930167,0,0,30,3.750
1764838841.9970107,0,0,32,4.000
1764838842.0010157,0,0,31,3.875
1764838842.005012,0,0,31,3.875
1764838842.00901,1,1,30,3.750
1764838842.013011,0,0,30,3.750
1764838842.017012,0,0,32,4.000
1764838842.0210168,0,0,32,4.000
1764838842.02501,0,0,30,3.750
1764838842.0290065,1,1,30,3.750
1764838842.0330172,0,0,30,3.750
1764838842.0370116,0,0,31,3.875
1764838842.0410159,0,0,31,3.875
1764838842.045009,0,0,31,3.875
1764838842.0490057,1,1,29,3.625
1764838842.052998,0,0,30,3.750
1764838842.0569928,0,0,32,4.000
1764838842.0610054,0,0,32,4.000
1764838842.0650084,0,0,30,3.750
1764838842.0690086,1,1,30,3.750
1764838842.0730257,0,0,30,3.750
1764838842.077018,0,0,31,3.875
1764838842.0810459,0,0,32,4.000
1764838842.0849953,0,0,31,3.875
1764838842.0889914,1,1,30,3.750
1764838842.0930123,0,0,30,3.750
1764838842.0970144,0,0,32,4.000
1764838842.1010118,0,0,31,3.875
1764838842.1049943,0,0,31,3.875
1764838842.108992,1,1,30,3.750
1764838842.1130106,0,0,30,3.750
1764838842.117009,0,0,32,4.000
1764838842.1210165,0,0,32,4.000
1764838842.12501,0,0,31,3.875
1764838842.1290085,1,1,30,3.750
1764838842.13301,0,0,30,3.750
1764838842.1370082,0,0,31,3.875
1764838842.1410136,0,0,32,4.000
1764838842.1450124,0,0,31,3.875
1764838842.149011,1,1,29,3.625
1764838842.153088,0,0,31,3.875
1764838842.1570203,0,0,32,4.000
1764838842.1610122,0,0,32,4.000
1764838842.1649954,0,0,31,3.875
1764838842.1689937,1,1,30,3.750
1764838842.1729944,0,0,31,3.875
1764838842.1769936,0,0,32,4.000
1764838842.1810005,0,0,31,3.875
1764838842.1850257,0,0,30,3.750
1764838842.1889944,1,1,30,3.750
1764838842.193013,0,0,32,4.000
1764838842.197008,0,0,31,3.875
1764838842.2010074,0,0,31,3.875
1764838842.2050092,0,0,30,3.750
1764838842.2090073,1,1,30,3.750
1764838842.213009,0,0,31,3.875
1764838842.2170038,0,0,32,4.000
1764838842.2210112,0,0,31,3.875
1764838842.2250075,0,0,30,3.750
1764838842.2290068,1,1,30,3.750
1764838842.2330155,0,0,31,3.875
1764838842.2370052,0,0,32,4.000
1764838842.2410114,0,0,31,3.875
1764838842.2453866,0,0,30,3.750
1764838842.2491379,1,1,30,3.750
1764838842.253032,0,0,32,4.000
1764838842.2570066,0,0,32,4.000
1764838842.261009,0,0,31,3.875
1764838842.2650065,0,0,30,3.750
1764838842.2690072,1,1,30,3.750
1764838842.2730076,0,0,31,3.875
1764838842.2770214,0,0,32,4.000
1764838842.28101,0,0,31,3.875
1764838842.285041,0,0,30,3.750
1764838842.2890062,1,1,30,3.750
1764838842.2930102,0,0,31,3.875
1764838842.297007,0,0,31,3.875
1764838842.3010068,0,0,31,3.875
1764838842.3049989,0,0,30,3.750
1764838842.3090086,1,1,30,3.750
1764838842.313011,0,0,31,3.875
1764838842.317009,0,0,32,4.000
1764838842.321005,0,0,31,3.875
1764838842.3250024,0,0,30,3.750
1764838842.3290045,1,1,30,3.750
1764838842.3330092,0,0,31,3.875
1764838842.337006,0,0,32,4.000
1764838842.3410077,0,0,31,3.875
1764838842.3450038,0,0,30,3.750
1764838842.3490016,1,1,30,3.750
1764838842.3530948,0,0,31,3.875
1764838842.3570213,0,0,31,3.875
1764838842.36101,0,0,32,4.000
1764838842.3649907,0,0,30,3.750
1764838842.3689883,1,1,30,3.750
1764838842.373008,0,0,31,3.875
1764838842.3770092,0,0,32,4.000
1764838842.3810103,0,0,31,3.875
1764838842.3850214,0,0,29,3.625
1764838842.3889894,1,1,30,3.750
1764838842.3930082,0,0,31,3.875
1764838842.3970082,0,0,32,4.000
1764838842.4010115,0,0,31,3.875
1764838842.4050062,0,0,30,3.750
1764838842.4090018,1,1,30,3.750
1764838842.4130073,0,0,31,3.875
1764838842.4170048,0,0,32,4.000
1764838842.4210117,0,0,31,3.875
1764838842.425006,0,0,29,3.625
1764838842.429003,1,1,30,3.750
1764838842.433005,0,0,31,3.875
1764838842.4370055,0,0,32,4.000
1764838842.4410095,0,0,32,4.000
1764838842.445003,0,0,30,3.750
1764838842.4490004,1,1,30,3.750
1764838842.4530072,0,0,31,3.875
1764838842.4570038,0,0,32,4.000
1764838842.4610095,0,0,31,3.875
1764838842.4650056,0,0,30,3.750
1764838842.4690065,1,1,30,3.750
1764838842.4730072,0,0,30,3.750
1764838842.4770062,0,0,32,4.000
1764838842.4810145,0,0,31,3.875
1764838842.4849908,0,0,30,3.750
1764838842.489022,1,1,30,3.750
1764838842.4930055,0,0,31,3.875
1764838842.4970038,0,0,31,3.875
1764838842.5010126,0,0,32,4.000
1764838842.504988,0,0,30,3.750
1764838842.5089898,1,1,30,3.750
1764838842.5130053,0,0,31,3.875
1764838842.517005,0,0,32,4.000
1764838842.5210068,0,0,32,4.000
1764838842.525003,0,0,29,3.625
1764838842.5290039,1,1,30,3.750
1764838842.5330062,0,0,31,3.875
1764838842.5370026,0,0,32,4.000
1764838842.5410104,0,0,31,3.875
1764838842.5450032,0,0,30,3.750
1764838842.5490055,1,1,30,3.750
1764838842.553072,0,0,31,3.875
1764838842.5570023,0,0,31,3.875
1764838842.560989,0,0,32,4.000
1764838842.56499,0,0,31,3.875
1764838842.568989,1,1,30,3.750
1764838842.5730026,0,0,30,3.750
1764838842.577002,0,0,31,3.875
1764838842.5810063,0,0,32,4.000
1764838842.5849876,0,0,31,3.875
1764838842.5890245,1,1,30,3.750
1764838842.5930066,0,0,31,3.875
1764838842.597003,0,0,32,4.000
1764838842.601001,0,0,32,4.000
1764838842.6049936,0,0,30,3.750
1764838842.6089962,1,1,29,3.625
1764838842.6130033,0,0,30,3.750
1764838842.6169999,0,0,32,4.000
1764838842.6210017,0,0,32,4.000
1764838842.6249945,0,0,30,3.750
1764838842.6289978,1,1,29,3.625
1764838842.633002,0,0,31,3.875
1764838842.636999,0,0,31,3.875
1764838842.641003,0,0,31,3.875
1764838842.6449966,0,0,30,3.750
1764838842.6489928,1,1,30,3.750
1764838842.6529984,0,0,31,3.875
1764838842.6569989,0,0,32,4.000
1764838842.6610057,0,0,32,4.000
1764838842.6649947,0,0,30,3.750
1764838842.6689925,1,1,29,3.625
1764838842.673,0,0,31,3.875
1764838842.6770256,0,0,32,4.000
1764838842.681019,0,0,32,4.000
1764838842.685,0,0,30,3.750
1764838842.6890056,1,1,29,3.625
1764838842.6929917,0,0,30,3.750
1764838842.696986,0,0,32,4.000
1764838842.700993,0,0,32,4.000
1764838842.7049959,0,0,30,3.750
1764838842.7089932,1,1,29,3.625
1764838842.7129893,0,0,30,3.750
1764838842.716985,0,0,32,4.000
1764838842.7209995,0,0,32,4.000
1764838842.7249987,0,0,31,3.875
1764838842.7289925,1,1,30,3.750
1764838842.732988,0,0,30,3.750
1764838842.736984,0,0,31,3.875
1764838842.7410018,0,0,32,4.000
1764838842.745,0,0,31,3.875
1764838842.7489939,1,1,30,3.750
1764838842.753067,0,0,30,3.750
1764838842.757014,0,0,32,4.000
1764838842.7610025,0,0,32,4.000
1764838842.7649875,0,0,30,3.750
1764838842.768984,1,1,30,3.750
1764838842.772997,0,0,30,3.750
1764838842.7769973,0,0,31,3.875
1764838842.781004,0,0,32,4.000
1764838842.7849877,0,0,31,3.875
1764838842.789021,1,1,29,3.625
1764838842.7929993,0,0,30,3.750
1764838842.796995,0,0,32,4.000
1764838842.800997,0,0,32,4.000
1764838842.8049922,0,0,31,3.875
1764838842.8089929,1,1,29,3.625
1764838842.8129964,0,0,30,3.750
1764838842.8169959,0,0,31,3.875
1764838842.821003,0,0,32,4.000
1764838842.8249948,0,0,31,3.875
1764838842.8289964,1,1,30,3.750
1764838842.832997,0,0,30,3.750
1764838842.8369932,0,0,32,4.000
1764838842.8409982,0,0,32,4.000
1764838842.8449943,0,0,31,3.875
1764838842.8489935,1,1,30,3.750
1764838842.8529913,0,0,30,3.750
1764838842.8569806,0,0,32,4.000
1764838842.8609877,0,0,32,4.000
1764838842.864992,0,0,29,3.625
1764838842.8689933,1,1,30,3.750
1764838842.8729982,0,0,31,3.875
1764838842.8769946,0,0,31,3.875
1764838842.880997,0,0,31,3.875
1764838842.8849936,0,0,30,3.750
1764838842.888993,1,1,30,3.750
1764838842.8930032,0,0,31,3.875
1764838842.8969975,0,0,32,4.000
1764838842.9010053,0,0,31,3.875
1764838842.9049916,0,0,29,3.625
1764838842.908992,1,1,30,3.750
1764838842.9129956,0,0,31,3.875
1764838842.9169967,0,0,32,4.000
1764838842.9209945,0,0,31,3.875
1764838842.9249804,0,0,30,3.750
1764838842.9289827,1,1,31,3.875
1764838842.9329998,0,0,31,3.875
1764838842.9369957,0,0,32,4.000
1764838842.9409986,0,0,32,4.000
1764838842.9449916,0,0,29,3.625
1764838842.9489899,1,1,30,3.750
1764838842.9579175,0,0,31,3.875
1764838842.9610293,0,0,31,3.875
1764838842.9649825,0,0,29,3.625
1764838842.9689796,1,1,29,3.625
1764838842.9729881,0,0,31,3.875
1764838842.976982,0,0,31,3.875
1764838842.9809816,0,0,32,4.000
1764838842.98498,0,0,30,3.750
1764838842.9889805,1,1,29,3.625
1764838842.9930356,0,0,30,3.750
1764838842.997001,0,0,32,4.000
1764838843.0010102,0,0,31,3.875
1764838843.0049965,0,0,30,3.750
1764838843.0089943,1,1,29,3.625
1764838843.0130022,0,0,31,3.875
1764838843.016999,0,0,32,4.000
1764838843.020998,0,0,31,3.875
1764838843.0249968,0,0,30,3.750
1764838843.0290017,1,1,30,3.750
1764838843.0329978,0,0,31,3.875
1764838843.0369852,0,0,32,4.000
1764838843.0409937,0,0,31,3.875
1764838843.044998,0,0,29,3.625
1764838843.0489936,1,1,30,3.750
1764838843.0529876,0,0,31,3.875
1764838843.0569825,0,0,31,3.875
1764838843.0610068,0,0,31,3.875
1764838843.064999,0,0,30,3.750
1764838843.0689945,1,1,30,3.750
1764838843.0730002,0,0,31,3.875
1764838843.076996,0,0,32,4.000
1764838843.0810025,0,0,31,3.875
1764838843.0849965,0,0,29,3.625
1764838843.0889924,1,1,30,3.750
1764838843.0930004,0,0,30,3.750
1764838843.0969932,0,0,32,4.000
1764838843.1010017,0,0,31,3.875
1764838843.1049957,0,0,30,3.750
1764838843.1089911,1,1,29,3.625
1764838843.113001,0,0,31,3.875
1764838843.1169984,0,0,31,3.875
1764838843.1210015,0,0,31,3.875
1764838843.1249943,0,0,29,3.625
1764838843.1289954,1,1,30,3.750
1764838843.1330068,0,0,31,3.875
1764838843.1369927,0,0,32,4.000
1764838843.1410007,0,0,31,3.875
1764838843.1449945,0,0,30,3.750
1764838843.1490054,1,1,30,3.750
1764838843.152999,0,0,30,3.750
1764838843.1570742,0,0,31,3.875
1764838843.1610126,0,0,32,4.000
1764838843.1649928,0,0,29,3.625
1764838843.1689787,1,1,30,3.750
1764838843.1729965,0,0,30,3.750
1764838843.1769938,0,0,32,4.000
1764838843.1809952,0,0,31,3.875
1764838843.1849794,0,0,30,3.750
1764838843.1889784,1,1,30,3.750
1764838843.193034,0,0,31,3.875
1764838843.1969972,0,0,32,4.000
1764838843.2009947,0,0,31,3.875
1764838843.2049959,0,0,30,3.750
1764838843.2089949,1,1,30,3.750
1764838843.2129884,0,0,31,3.875
1764838843.216976,0,0,32,4.000
1764838843.220991,0,0,32,4.000
1764838843.224995,0,0,30,3.750
1764838843.2289984,1,1,30,3.750
1764838843.2330027,0,0,30,3.750
1764838843.2369924,0,0,32,4.000
1764838843.2409968,0,0,32,4.000
1764838843.245366,0,0,30,3.750
1764838843.24912,1,1,30,3.750
1764838843.2530193,0,0,31,3.875
1764838843.256995,0,0,32,4.000
1764838843.2609966,0,0,32,4.000
1764838843.2649927,0,0,30,3.750
1764838843.2689948,1,1,30,3.750
1764838843.2729962,0,0,30,3.750
1764838843.2769935,0,0,32,4.000
1764838843.2809925,0,0,32,4.000
1764838843.2849936,0,0,30,3.750
1764838843.2889905,1,1,30,3.750
1764838843.2929957,0,0,31,3.875
1764838843.2970436,0,0,32,4.000
1764838843.3010054,0,0,32,4.000
1764838843.3049898,0,0,30,3.750
1764838843.3089955,1,1,30,3.750
1764838843.312997,0,0,30,3.750
1764838843.317001,0,0,32,4.000
1764838843.320994,0,0,32,4.000
1764838843.3249917,0,0,30,3.750
1764838843.32899,1,1,29,3.625
1764838843.3329988,0,0,30,3.750
1764838843.3369915,0,0,32,4.000
1764838843.340994,0,0,32,4.000
1764838843.3449883,0,0,30,3.750
1764838843.3489907,1,1,29,3.625
1764838843.352995,0,0,30,3.750
1764838843.357076,0,0,32,4.000
1764838843.361011,0,0,31,3.875
1764838843.364977,0,0,30,3.750
1764838843.3689759,1,1,29,3.625
1764838843.372993,0,0,30,3.750
1764838843.3769927,0,0,32,4.000
1764838843.3809965,0,0,32,4.000
1764838843.384977,0,0,31,3.875
1764838843.3889716,1,1,30,3.750
1764838843.3929982,0,0,30,3.750
1764838843.3970268,0,0,32,4.000
1764838843.4009998,0,0,32,4.000
1764838843.404994,0,0,30,3.750
1764838843.408989,1,1,29,3.625
1764838843.4129963,0,0,30,3.750
1764838843.4169903,0,0,31,3.875
1764838843.421,0,0,32,4.000
1764838843.424992,0,0,30,3.750
1764838843.4289954,1,1,29,3.625
1764838843.433001,0,0,30,3.750
1764838843.43699,0,0,31,3.875
1764838843.4409924,0,0,32,4.000
1764838843.4449768,0,0,31,3.875
1764838843.4489768,1,1,29,3.625
1764838843.4529934,0,0,30,3.750
1764838843.4569898,0,0,32,4.000
1764838843.460988,0,0,31,3.875
1764838843.4649777,0,0,31,3.875
1764838843.468978,1,1,30,3.750
1764838843.4729939,0,0,30,3.750
1764838843.4769878,0,0,31,3.875
1764838843.4809964,0,0,32,4.000
1764838843.4849918,0,0,31,3.875
1764838843.4889903,1,1,30,3.750
1764838843.4929943,0,0,30,3.750
1764838843.4970195,0,0,31,3.875
1764838843.5010002,0,0,32,4.000
1764838843.504991,0,0,31,3.875
1764838843.5089898,1,1,30,3.750
1764838843.512998,0,0,30,3.750
1764838843.51699,0,0,32,4.000
1764838843.5209932,0,0,32,4.000
1764838843.524989,0,0,31,3.875
1764838843.5289898,1,1,30,3.750
1764838843.5329967,0,0,30,3.750
1764838843.5369868,0,0,31,3.875
1764838843.5409925,0,0,32,4.000
1764838843.54499,0,0,30,3.750
1764838843.548992,1,1,30,3.750
1764838843.5529861,0,0,31,3.875
1764838843.557067,0,0,32,4.000
1764838843.5610018,0,0,31,3.875
1764838843.564989,0,0,30,3.750
1764838843.5689902,1,1,30,3.750
1764838843.5729911,0,0,31,3.875
1764838843.5769904,0,0,32,4.000
1764838843.5809908,0,0,31,3.875
1764838843.5849714,0,0,30,3.750
1764838843.588972,1,1,30,3.750
1764838843.5929937,0,0,31,3.875
1764838843.5970263,0,0,32,4.000
1764838843.600995,0,0,31,3.875
1764838843.60499,0,0,30,3.750
1764838843.6089895,1,1,30,3.750
1764838843.6129937,0,0,32,4.000
1764838843.616989,0,0,32,4.000
1764838843.6209946,0,0,31,3.875
1764838843.6249871,0,0,29,3.625
1764838843.6289866,1,1,30,3.750
1764838843.632996,0,0,32,4.000
1764838843.6369917,0,0,32,4.000
1764838843.640995,0,0,31,3.875
1764838843.6449862,0,0,30,3.750
1764838843.6489866,1,1,30,3.750
1764838843.652998,0,0,31,3.875
1764838843.6569898,0,0,31,3.875
1764838843.6609898,0,0,31,3.875
1764838843.664985,0,0,29,3.625
1764838843.6689856,1,1,30,3.750
1764838843.6729927,0,0,31,3.875
1764838843.6769888,0,0,32,4.000
1764838843.6809928,0,0,31,3.875
1764838843.684986,0,0,29,3.625
1764838843.6889849,1,1,29,3.625
1764838843.6929908,0,0,31,3.875
1764838843.6969886,0,0,32,4.000
1764838843.7010403,0,0,31,3.875
1764838843.7050376,0,0,30,3.750
1764838843.7090302,1,1,30,3.750
1764838843.7130494,0,0,31,3.875
1764838843.7170367,0,0,32,4.000
1764838843.7210336,0,0,31,3.875
1764838843.7250168,0,0,30,3.750
1764838843.7290099,1,1,29,3.625
1764838843.7330322,0,0,30,3.750
1764838843.7370322,0,0,32,4.000
1764838843.7410347,0,0,31,3.875
1764838843.7450147,0,0,29,3.625
1764838843.7490113,1,1,29,3.625
1764838843.7530332,0,0,31,3.875
1764838843.7571073,0,0,31,3.875
1764838843.7610524,0,0,31,3.875
1764838843.7650154,0,0,30,3.750
1764838843.769013,1,1,30,3.750
1764838843.7730343,0,0,31,3.875
1764838843.7770274,0,0,32,4.000
1764838843.7810304,0,0,31,3.875
1764838843.785012,0,0,30,3.750
1764838843.7890143,1,1,30,3.750
1764838843.7930326,0,0,31,3.875
1764838843.7970312,0,0,32,4.000
1764838843.801133,0,0,31,3.875
1764838843.8049767,0,0,30,3.750
1764838843.8089721,1,1,29,3.625
1764838843.812988,0,0,31,3.875
1764838843.816988,0,0,32,4.000
1764838843.820993,0,0,31,3.875
1764838843.8249733,0,0,30,3.750
1764838843.8289723,1,1,29,3.625
1764838843.8329897,0,0,30,3.750
1764838843.8369856,0,0,32,4.000
1764838843.8409874,0,0,31,3.875
1764838843.8449693,0,0,30,3.750
1764838843.8489707,1,1,29,3.625
1764838843.8529904,0,0,31,3.875
1764838843.8569856,0,0,32,4.000
1764838843.860992,0,0,32,4.000
1764838843.8649864,0,0,30,3.750
1764838843.8689845,1,1,29,3.625
1764838843.8729894,0,0,30,3.750
1764838843.876969,0,0,32,4.000
1764838843.8809738,0,0,32,4.000
1764838843.884983,0,0,29,3.625
1764838843.8889859,1,1,30,3.750
1764838843.892993,0,0,30,3.750
1764838843.8969846,0,0,31,3.875
1764838843.9010231,0,0,32,4.000
1764838843.9049842,0,0,30,3.750
1764838843.9089851,1,1,30,3.750
1764838843.9129927,0,0,30,3.750
1764838843.916984,0,0,31,3.875
1764838843.9209874,0,0,31,3.875
1764838843.9249837,0,0,30,3.750
1764838843.9289863,1,1,30,3.750
1764838843.9329915,0,0,30,3.750
1764838843.936984,0,0,31,3.875
1764838843.9409897,0,0,31,3.875
1764838843.9449825,0,0,31,3.875
1764838843.9489818,1,1,30,3.750
1764838843.952994,0,0,31,3.875
1764838843.9618907,0,0,32,4.000
1764838843.9650517,0,0,29,3.625
1764838843.968992,1,1,29,3.625
1764838843.9729838,0,0,30,3.750
1764838843.976971,0,0,31,3.875
1764838843.9809837,0,0,31,3.875
1764838843.9849858,0,0,30,3.750
1764838843.9889827,1,1,29,3.625
1764838843.9929812,0,0,30,3.750
1764838843.9969692,0,0,31,3.875
1764838844.0010211,0,0,31,3.875
1764838844.0049925,0,0,30,3.750
1764838844.0089853,1,1,30,3.750
1764838844.0129788,0,0,30,3.750
1764838844.016969,0,0,31,3.875
1764838844.0215223,0,0,32,4.000
1764838844.02502,0,0,30,3.750
1764838844.0290043,1,1,30,3.750
1764838844.0330534,0,0,30,3.750
1764838844.0369942,0,0,32,4.000
1764838844.040989,0,0,31,3.875
1764838844.0449865,0,0,30,3.750
1764838844.048983,1,1,30,3.750
1764838844.0530274,0,0,30,3.750
1764838844.0569935,0,0,32,4.000
1764838844.0609899,0,0,31,3.875
1764838844.0649874,0,0,31,3.875
1764838844.0689845,1,1,30,3.750
1764838844.0729914,0,0,30,3.750
1764838844.0769825,0,0,31,3.875
1764838844.0809915,0,0,32,4.000
1764838844.084984,0,0,31,3.875
1764838844.088984,1,1,30,3.750
1764838844.09299,0,0,30,3.750
1764838844.096982,0,0,31,3.875
1764838844.1009865,0,0,32,4.000
1764838844.1050224,0,0,31,3.875
1764838844.1089854,1,1,30,3.750
1764838844.1129901,0,0,30,3.750
1764838844.1169813,0,0,31,3.875
1764838844.1210003,0,0,32,4.000
1764838844.1249876,0,0,31,3.875
1764838844.1289835,1,1,29,3.625
1764838844.1329763,0,0,29,3.625
1764838844.136965,0,0,31,3.875
1764838844.1409726,0,0,32,4.000
1764838844.144986,0,0,31,3.875
1764838844.1489837,1,1,30,3.750
1764838844.1529818,0,0,30,3.750
1764838844.1569655,0,0,32,4.000
1764838844.1610608,0,0,32,4.000
1764838844.1649814,0,0,31,3.875
1764838844.1689663,1,1,29,3.625
1764838844.1729884,0,0,29,3.625
1764838844.1769822,0,0,31,3.875
1764838844.1809833,0,0,32,4.000
1764838844.1849663,0,0,31,3.875
1764838844.1889672,1,1,30,3.750
1764838844.1929872,0,0,30,3.750
1764838844.1969783,0,0,32,4.000
1764838844.2009861,0,0,32,4.000
1764838844.2050161,0,0,31,3.875
1764838844.2089827,1,1,30,3.750
1764838844.212987,0,0,30,3.750
1764838844.2169802,0,0,31,3.875
1764838844.2209756,0,0,32,4.000
1764838844.224966,0,0,31,3.875
1764838844.2289798,1,1,30,3.750
1764838844.2329924,0,0,31,3.875
1764838844.2369835,0,0,32,4.000
1764838844.2409756,0,0,31,3.875
1764838844.245357,0,0,30,3.750
1764838844.2491267,1,1,30,3.750
1764838844.252994,0,0,32,4.000
1764838844.2569673,0,0,32,4.000
1764838844.2609622,0,0,31,3.875
1764838844.2649636,0,0,29,3.625
1764838844.268963,1,1,29,3.625
1764838844.2729893,0,0,31,3.875
1764838844.276993,0,0,32,4.000
1764838844.280982,0,0,31,3.875
1764838844.2849803,0,0,30,3.750
1764838844.2889795,1,1,30,3.750
1764838844.2929928,0,0,31,3.875
1764838844.2969806,0,0,32,4.000
1764838844.3009827,0,0,31,3.875
1764838844.3049643,0,0,29,3.625
1764838844.3090093,1,1,31,3.875
1764838844.312983,0,0,31,3.875
1764838844.3169818,0,0,32,4.000
1764838844.3209825,0,0,31,3.875
1764838844.3249717,0,0,30,3.750
1764838844.3289616,1,1,30,3.750
1764838844.3329792,0,0,31,3.875
1764838844.336981,0,0,32,4.000
1764838844.3409965,0,0,31,3.875
1764838844.3449783,0,0,30,3.750
1764838844.3489778,1,1,29,3.625
1764838844.352987,0,0,31,3.875
1764838844.3569906,0,0,32,4.000
1764838844.3610632,0,0,32,4.000
1764838844.3649948,0,0,29,3.625
1764838844.368978,1,1,30,3.750
1764838844.3729742,0,0,31,3.875
1764838844.3769653,0,0,32,4.000
1764838844.380983,0,0,31,3.875
1764838844.3849826,0,0,30,3.750
1764838844.3889794,1,1,29,3.625
1764838844.3929756,0,0,31,3.875
1764838844.3969615,0,0,31,3.875
1764838844.4009805,0,0,31,3.875
1764838844.4049823,0,0,30,3.750
1764838844.4089768,1,1,30,3.750
1764838844.412982,0,0,31,3.875
1764838844.4169765,0,0,32,4.000
1764838844.420985,0,0,31,3.875
1764838844.4249794,0,0,30,3.750
1764838844.4289794,1,1,30,3.750
1764838844.432985,0,0,30,3.750
1764838844.4369771,0,0,31,3.875
1764838844.4409854,0,0,31,3.875
1764838844.4449759,0,0,30,3.750
1764838844.448977,1,1,30,3.750
1764838844.4529817,0,0,30,3.750
1764838844.4569747,0,0,32,4.000
1764838844.4609802,0,0,32,4.000
1764838844.4649765,0,0,29,3.625
1764838844.468978,1,1,30,3.750
1764838844.4729826,0,0,31,3.875
1764838844.4769764,0,0,32,4.000
1764838844.4809806,0,0,31,3.875
1764838844.4849787,0,0,29,3.625
1764838844.4889786,1,1,30,3.750
1764838844.492984,0,0,30,3.750
1764838844.496975,0,0,32,4.000
1764838844.500984,0,0,31,3.875
1764838844.5049782,0,0,30,3.750
1764838844.5090506,1,1,29,3.625
1764838844.5130322,0,0,30,3.750
1764838844.5170207,0,0,32,4.000
1764838844.5210245,0,0,31,3.875
1764838844.5250175,0,0,30,3.750
1764838844.5290282,1,1,30,3.750
1764838844.5330276,0,0,31,3.875
1764838844.5370183,0,0,32,4.000
1764838844.54102,0,0,31,3.875
1764838844.5449994,0,0,30,3.750
1764838844.5490012,1,1,30,3.750
1764838844.5530238,0,0,31,3.875
1764838844.557022,0,0,32,4.000
1764838844.5611012,0,0,31,3.875
1764838844.5650306,0,0,31,3.875
1764838844.5690212,1,1,30,3.750
1764838844.5730233,0,0,30,3.750
1764838844.5770202,0,0,31,3.875
1764838844.5810187,0,0,31,3.875
1764838844.5850005,0,0,30,3.750
1764838844.5889993,1,1,29,3.625
1764838844.5930238,0,0,30,3.750
1764838844.5970235,0,0,32,4.000
1764838844.601023,0,0,31,3.875
1764838844.6050189,0,0,30,3.750
1764838844.6090167,1,1,30,3.750
1764838844.6129835,0,0,30,3.750
1764838844.616977,0,0,32,4.000
1764838844.620982,0,0,31,3.875
1764838844.6249735,0,0,30,3.750
1764838844.6289744,1,1,30,3.750
1764838844.6329827,0,0,30,3.750
1764838844.6369793,0,0,32,4.000
1764838844.6409872,0,0,32,4.000
1764838844.644981,0,0,30,3.750
1764838844.6489747,1,1,30,3.750
1764838844.6529694,0,0,30,3.750
1764838844.656961,0,0,31,3.875
1764838844.6609738,0,0,32,4.000
1764838844.6649764,0,0,31,3.875
1764838844.668974,1,1,30,3.750
1764838844.672971,0,0,30,3.750
1764838844.676961,0,0,32,4.000
1764838844.6809745,0,0,31,3.875
1764838844.6849782,0,0,31,3.875
1764838844.6889749,1,1,29,3.625
1764838844.6929767,0,0,31,3.875
1764838844.6969757,0,0,32,4.000
1764838844.700981,0,0,32,4.000
1764838844.7049742,0,0,30,3.750
1764838844.708971,1,1,29,3.625
1764838844.7130728,0,0,30,3.750
1764838844.7170203,0,0,31,3.875
1764838844.7210233,0,0,31,3.875
1764838844.7250178,0,0,30,3.750
1764838844.7290142,1,1,30,3.750
1764838844.7330215,0,0,30,3.750
1764838844.737016,0,0,32,4.000
1764838844.7410235,0,0,32,4.000
1764838844.7450178,0,0,30,3.750
1764838844.7490187,1,1,29,3.625
1764838844.7530234,0,0,30,3.750
1764838844.7570128,0,0,32,4.000
1764838844.7611005,0,0,32,4.000
1764838844.765033,0,0,30,3.750
1764838844.769019,1,1,30,3.750
1764838844.7730088,0,0,29,3.625
1764838844.7769973,0,0,31,3.875
1764838844.7810102,0,0,32,4.000
1764838844.7850175,0,0,31,3.875
1764838844.789018,1,1,30,3.750
1764838844.79301,0,0,30,3.750
1764838844.7969964,0,0,31,3.875
1764838844.801017,0,0,32,4.000
1764838844.805022,0,0,31,3.875
1764838844.809019,1,1,29,3.625
1764838844.8131206,0,0,30,3.750
1764838844.8169777,0,0,32,4.000
1764838844.820974,0,0,32,4.000
1764838844.8249736,0,0,30,3.750
1764838844.8289742,1,1,30,3.750
1764838844.8329692,0,0,30,3.750
1764838844.8369572,0,0,31,3.875
1764838844.840965,0,0,31,3.875
1764838844.844977,0,0,31,3.875
1764838844.8489752,1,1,29,3.625
1764838844.8529785,0,0,30,3.750
1764838844.8569708,0,0,31,3.875
1764838844.8609703,0,0,32,4.000
1764838844.8649704,0,0,31,3.875
1764838844.8689733,1,1,30,3.750
1764838844.8729782,0,0,30,3.750
1764838844.8769736,0,0,31,3.875
1764838844.8809762,0,0,32,4.000
1764838844.8849707,0,0,31,3.875
1764838844.8889728,1,1,30,3.750
1764838844.8929703,0,0,30,3.750
1764838844.896957,0,0,32,4.000
1764838844.9009638,0,0,32,4.000
1764838844.9049704,0,0,31,3.875
1764838844.9089735,1,1,30,3.750
1764838844.9130123,0,0,32,4.000
1764838844.916974,0,0,32,4.000
1764838844.9209785,0,0,31,3.875
1764838844.9249692,0,0,30,3.750
1764838844.928969,1,1,30,3.750
1764838844.932978,0,0,31,3.875
1764838844.9369712,0,0,32,4.000
1764838844.940979,0,0,31,3.875
1764838844.944976,0,0,30,3.750
1764838844.9489684,1,1,30,3.750
1764838844.9529707,0,0,31,3.875
1764838844.9569564,0,0,32,4.000
1764838844.965891,0,0,30,3.750
1764838844.9689858,1,1,29,3.625
1764838844.972976,0,0,30,3.750
1764838844.9769588,0,0,31,3.875
1764838844.9809687,0,0,31,3.875
1764838844.9849746,0,0,30,3.750
1764838844.9889822,1,1,30,3.750
1764838844.9929664,0,0,31,3.875
1764838844.9969575,0,0,31,3.875
1764838845.000973,0,0,31,3.875
1764838845.0049796,0,0,30,3.750
1764838845.0089707,1,1,30,3.750
1764838845.01298,0,0,31,3.875
1764838845.017013,0,0,32,4.000
1764838845.0209725,0,0,31,3.875
1764838845.0249712,0,0,30,3.750
1764838845.028971,1,1,30,3.750
1764838845.0329766,0,0,31,3.875
1764838845.0369713,0,0,32,4.000
1764838845.0409758,0,0,31,3.875
1764838845.0449739,0,0,30,3.750
1764838845.048979,1,1,30,3.750
1764838845.052969,0,0,31,3.875
1764838845.0569546,0,0,32,4.000
1764838845.0609705,0,0,31,3.875
1764838845.0649736,0,0,30,3.750
1764838845.0689754,1,1,29,3.625
1764838845.0729716,0,0,30,3.750
1764838845.0769684,0,0,32,4.000
1764838845.0809731,0,0,32,4.000
1764838845.0849564,0,0,29,3.625
1764838845.0889559,1,1,30,3.750
1764838845.0929732,0,0,31,3.875
1764838845.0969687,0,0,32,4.000
1764838845.1009734,0,0,31,3.875
1764838845.104972,0,0,30,3.750
1764838845.1089735,1,1,30,3.750
1764838845.1129775,0,0,30,3.750
1764838845.1170013,0,0,31,3.875
1764838845.1209748,0,0,31,3.875
1764838845.1249716,0,0,30,3.750
1764838845.1289697,1,1,29,3.625
1764838845.132978,0,0,30,3.750
1764838845.1369667,0,0,32,4.000
1764838845.1409686,0,0,31,3.875
1764838845.1449673,0,0,30,3.750
1764838845.148972,1,1,29,3.625
1764838845.1529799,0,0,31,3.875
1764838845.1569695,0,0,32,4.000
1764838845.1609726,0,0,31,3.875
1764838845.165051,0,0,30,3.750
1764838845.1689818,1,1,30,3.750
1764838845.1729684,0,0,30,3.750
1764838845.1769521,0,0,32,4.000
1764838845.1809585,0,0,31,3.875
1764838845.1849678,0,0,30,3.750
1764838845.18897,1,1,29,3.625
1764838845.1929648,0,0,30,3.750
1764838845.1969507,0,0,31,3.875
1764838845.200976,0,0,31,3.875
1764838845.2049725,0,0,30,3.750
1764838845.2089665,1,1,29,3.625
1764838845.2129745,0,0,31,3.875
1764838845.2170043,0,0,32,4.000
1764838845.2209756,0,0,32,4.000
1764838845.2249663,0,0,30,3.750
1764838845.2289715,1,1,30,3.750
1764838845.232978,0,0,30,3.750
1764838845.2369704,0,0,32,4.000
1764838845.2409694,0,0,32,4.000
1764838845.2453492,0,0,29,3.625
1764838845.2490952,1,1,30,3.750
1764838845.252999,0,0,30,3.750
1764838845.2569697,0,0,32,4.000
1764838845.260989,0,0,31,3.875
1764838845.2649682,0,0,30,3.750
1764838845.268966,1,1,30,3.750
1764838845.272966,0,0,30,3.750
1764838845.2769709,0,0,32,4.000
1764838845.2809708,0,0,32,4.000
1764838845.2849665,0,0,31,3.875
1764838845.288966,1,1,29,3.625
1764838845.292964,0,0,30,3.750
1764838845.2969537,0,0,32,4.000
1764838845.3009856,0,0,32,4.000
1764838845.3049543,0,0,30,3.750
1764838845.3089519,1,1,30,3.750
1764838845.3129697,0,0,30,3.750
1764838845.3169706,0,0,32,4.000
1764838845.3210032,0,0,31,3.875
1764838845.3249702,0,0,30,3.750
1764838845.3289647,1,1,30,3.750
1764838845.3329718,0,0,30,3.750
1764838845.336965,0,0,31,3.875
1764838845.34097,0,0,31,3.875
1764838845.3449519,0,0,31,3.875
1764838845.3489492,1,1,30,3.750
1764838845.352969,0,0,30,3.750
1764838845.3569777,0,0,31,3.875
1764838845.360971,0,0,32,4.000
1764838845.3650403,0,0,31,3.875
1764838845.368973,1,1,29,3.625
1764838845.3729649,0,0,31,3.875
1764838845.3769505,0,0,32,4.000
1764838845.38097,0,0,32,4.000
1764838845.384968,0,0,31,3.875
1764838845.3889663,1,1,30,3.750
1764838845.3929615,0,0,30,3.750
1764838845.3969486,0,0,32,4.000
1764838845.4009712,0,0,32,4.000
1764838845.4049664,0,0,30,3.750
1764838845.4089675,1,1,29,3.625
1764838845.4129725,0,0,30,3.750
1764838845.4169657,0,0,31,3.875
1764838845.421006,0,0,32,4.000
1764838845.4249663,0,0,31,3.875
1764838845.428965,1,1,29,3.625
1764838845.4329717,0,0,31,3.875
1764838845.4369655,0,0,31,3.875
1764838845.4409657,0,0,31,3.875
1764838845.4449492,0,0,30,3.750
1764838845.44895,1,1,30,3.750
1764838845.4529703,0,0,30,3.750
1764838845.4569626,0,0,32,4.000
1764838845.4609635,0,0,31,3.875
1764838845.4649484,0,0,31,3.875
1764838845.4689512,1,1,30,3.750
1764838845.4729705,0,0,30,3.750
1764838845.4769638,0,0,31,3.875
1764838845.48097,0,0,31,3.875
1764838845.4849658,0,0,31,3.875
1764838845.4889643,1,1,30,3.750
1764838845.4929702,0,0,30,3.750
1764838845.4969618,0,0,32,4.000
1764838845.50097,0,0,32,4.000
1764838845.5049663,0,0,31,3.875
1764838845.5089662,1,1,30,3.750
1764838845.5129726,0,0,30,3.750
1764838845.5169635,0,0,31,3.875
1764838845.5210054,0,0,32,4.000
1764838845.5249648,0,0,31,3.875
1764838845.5289657,1,1,30,3.750
1764838845.5329707,0,0,30,3.750
1764838845.5369644,0,0,32,4.000
1764838845.5409644,0,0,32,4.000
1764838845.5449631,0,0,31,3.875
1764838845.5489652,1,1,30,3.750
1764838845.5529609,0,0,30,3.750
1764838845.5569515,0,0,32,4.000
1764838845.5609553,0,0,31,3.875
1764838845.56504,0,0,31,3.875
1764838845.5689754,1,1,30,3.750
1764838845.5729659,0,0,30,3.750
1764838845.5769513,0,0,32,4.000
1764838845.580959,0,0,32,4.000
1764838845.5849621,0,0,31,3.875
1764838845.5889626,1,1,30,3.750
1764838845.5929623,0,0,31,3.875
1764838845.5969481,0,0,31,3.875
1764838845.6009636,0,0,32,4.000
1764838845.6049602,0,0,29,3.625
1764838845.608961,1,1,29,3.625
1764838845.6129694,0,0,31,3.875
1764838845.6169631,0,0,31,3.875
1764838845.6210043,0,0,31,3.875
1764838845.624963,0,0,30,3.750
1764838845.628964,1,1,30,3.750
1764838845.632969,0,0,31,3.875
1764838845.636961,0,0,32,4.000
1764838845.6409678,0,0,31,3.875
1764838845.6449609,0,0,29,3.625
1764838845.6489642,1,1,30,3.750
1764838845.652976,0,0,32,4.000
1764838845.6569662,0,0,32,4.000
1764838845.660964,0,0,31,3.875
1764838845.6649485,0,0,30,3.750
1764838845.6689453,1,1,30,3.750
1764838845.672964,0,0,31,3.875
1764838845.676962,0,0,32,4.000
1764838845.6809654,0,0,31,3.875
1764838845.6849484,0,0,30,3.750
1764838845.6889436,1,1,30,3.750
1764838845.6929634,0,0,31,3.875
1764838845.6969616,0,0,32,4.000
1764838845.7009697,0,0,32,4.000
1764838845.7049634,0,0,30,3.750
1764838845.7089617,1,1,30,3.750
1764838845.712968,0,0,31,3.875
1764838845.716961,0,0,31,3.875
1764838845.720968,0,0,31,3.875
1764838845.7250001,0,0,30,3.750
1764838845.7289627,1,1,30,3.750
1764838845.7329671,0,0,31,3.875
1764838845.736959,0,0,31,3.875
1764838845.7409666,0,0,32,4.000
1764838845.7449617,0,0,30,3.750
1764838845.7489607,1,1,30,3.750
1764838845.7529662,0,0,31,3.875
1764838845.756958,0,0,31,3.875
1764838845.7609646,0,0,31,3.875
1764838845.7650409,0,0,30,3.750
1764838845.7689748,1,1,29,3.625
1764838845.7729592,0,0,31,3.875
1764838845.7769444,0,0,31,3.875
1764838845.780954,0,0,32,4.000
1764838845.7849638,0,0,30,3.750
1764838845.788962,1,1,30,3.750
1764838845.792958,0,0,30,3.750
1764838845.7969446,0,0,32,4.000
1764838845.8009603,0,0,32,4.000
1764838845.8049698,0,0,30,3.750
1764838845.8089604,1,1,30,3.750
1764838845.8129637,0,0,31,3.875
1764838845.816959,0,0,31,3.875
1764838845.8209732,0,0,32,4.000
1764838845.8249981,0,0,30,3.750
1764838845.8289628,1,1,29,3.625
1764838845.8329687,0,0,30,3.750
1764838845.8369675,0,0,32,4.000
1764838845.8409634,0,0,31,3.875
1764838845.8449593,0,0,30,3.750
1764838845.8489594,1,1,30,3.750
1764838845.8529613,0,0,30,3.750
1764838845.8569446,0,0,32,4.000
1764838845.8609517,0,0,31,3.875
1764838845.8649595,0,0,30,3.750
1764838845.8689802,1,1,30,3.750
1764838845.872968,0,0,31,3.875
1764838845.8769739,0,0,32,4.000
1764838845.8809595,0,0,32,4.000
1764838845.8849423,0,0,30,3.750
1764838845.8889413,1,1,29,3.625
1764838845.8929725,0,0,30,3.750
1764838845.8969631,0,0,31,3.875
1764838845.9009607,0,0,31,3.875
1764838845.9049406,0,0,31,3.875
1764838845.908952,1,1,30,3.750
1764838845.9129536,0,0,31,3.875
1764838845.9169452,0,0,32,4.000
1764838845.9209538,0,0,31,3.875
1764838845.9249585,0,0,30,3.750
1764838845.9290624,1,1,30,3.750
1764838845.9330146,0,0,31,3.875
1764838845.9370055,0,0,32,4.000
1764838845.94101,0,0,32,4.000
1764838845.9449997,0,0,30,3.750
1764838845.9490006,1,1,30,3.750
1764838845.9530084,0,0,30,3.750
1764838845.9570034,0,0,32,4.000
1764838845.9610083,0,0,31,3.875
1764838845.9710054,1,1,30,3.750
1764838845.9730232,0,0,30,3.750
1764838845.977005,0,0,31,3.875
1764838845.9810066,0,0,31,3.875
1764838845.9849834,0,0,30,3.750
1764838845.9889805,1,1,30,3.750
1764838845.993004,0,0,30,3.750
1764838845.9970062,0,0,31,3.875
1764838846.0010035,0,0,31,3.875
1764838846.0049899,0,0,30,3.750
1764838846.0089822,1,1,30,3.750
1764838846.013006,0,0,30,3.750
1764838846.0170014,0,0,31,3.875
1764838846.0210114,0,0,31,3.875
1764838846.0250032,0,0,30,3.750
1764838846.029005,1,1,30,3.750
1764838846.032969,0,0,31,3.875
1764838846.0369587,0,0,32,4.000
1764838846.0409644,0,0,31,3.875
1764838846.044958,0,0,30,3.750
1764838846.0489607,1,1,30,3.750
1764838846.052949,0,0,30,3.750
1764838846.0569398,0,0,32,4.000
1764838846.0609531,0,0,31,3.875
1764838846.0649595,0,0,30,3.750
1764838846.068958,1,1,29,3.625
1764838846.0729759,0,0,30,3.750
1764838846.0769584,0,0,31,3.875
1764838846.0809555,0,0,31,3.875
1764838846.0849555,0,0,30,3.750
1764838846.0889552,1,1,30,3.750
1764838846.0929458,0,0,31,3.875
1764838846.0969408,0,0,32,4.000
1764838846.1009388,0,0,32,4.000
1764838846.1049418,0,0,31,3.875
1764838846.1089404,1,1,30,3.750
1764838846.112961,0,0,30,3.750
1764838846.1169665,0,0,32,4.000
1764838846.1209621,0,0,32,4.000
1764838846.124958,0,0,31,3.875
1764838846.1289892,1,1,30,3.750
1764838846.1329772,0,0,30,3.750
1764838846.1369562,0,0,32,4.000
1764838846.1409626,0,0,31,3.875
1764838846.1449592,0,0,31,3.875
1764838846.1489682,1,1,30,3.750
1764838846.1529658,0,0,30,3.750
1764838846.1569545,0,0,31,3.875
1764838846.1609602,0,0,31,3.875
1764838846.1649668,0,0,31,3.875
1764838846.1690307,1,1,30,3.750
1764838846.1729689,0,0,30,3.750
1764838846.176943,0,0,31,3.875
1764838846.1809635,0,0,31,3.875
1764838846.1849585,0,0,31,3.875
1764838846.1889598,1,1,30,3.750
1764838846.1929543,0,0,30,3.750
1764838846.1969402,0,0,31,3.875
1764838846.2009494,0,0,32,4.000
1764838846.204956,0,0,31,3.875
1764838846.2089577,1,1,30,3.750
1764838846.2129614,0,0,29,3.625
1764838846.216957,0,0,31,3.875
1764838846.220959,0,0,32,4.000
1764838846.2249534,0,0,31,3.875
1764838846.2289543,1,1,30,3.750
1764838846.2329655,0,0,30,3.750
1764838846.2369566,0,0,31,3.875
1764838846.2409616,0,0,32,4.000
1764838846.245352,0,0,30,3.750
1764838846.2490938,1,1,30,3.750
1764838846.2529795,0,0,30,3.750
1764838846.2569551,0,0,31,3.875
1764838846.2609553,0,0,32,4.000
1764838846.2649562,0,0,31,3.875
1764838846.26895,1,1,29,3.625
1764838846.2729552,0,0,31,3.875
1764838846.2769547,0,0,32,4.000
1764838846.2809556,0,0,31,3.875
1764838846.2849538,0,0,30,3.750
1764838846.288954,1,1,30,3.750
1764838846.2929587,0,0,31,3.875
1764838846.296955,0,0,32,4.000
1764838846.300961,0,0,31,3.875
1764838846.3049762,0,0,30,3.750
1764838846.3089528,1,1,30,3.750
1764838846.3129544,0,0,31,3.875
1764838846.3169522,0,0,32,4.000
1764838846.320953,0,0,31,3.875
1764838846.324952,0,0,30,3.750
1764838846.328952,1,1,29,3.625
1764838846.3329425,0,0,31,3.875
1764838846.3369393,0,0,32,4.000
1764838846.340945,0,0,32,4.000
1764838846.344942,0,0,30,3.750
1764838846.3489382,1,1,30,3.750
1764838846.3529615,0,0,31,3.875
1764838846.3569524,0,0,31,3.875
1764838846.3609533,0,0,31,3.875
1764838846.3649526,0,0,30,3.750
1764838846.3690271,1,1,30,3.750
1764838846.3729644,0,0,31,3.875
1764838846.3769386,0,0,32,4.000
1764838846.3809507,0,0,31,3.875
1764838846.3849578,0,0,29,3.625
1764838846.3889542,1,1,29,3.625
1764838846.3929498,0,0,31,3.875
1764838846.3969352,0,0,31,3.875
1764838846.400948,0,0,31,3.875
1764838846.404959,0,0,29,3.625
1764838846.4089522,1,1,30,3.750
1764838846.4129562,0,0,31,3.875
1764838846.4169512,0,0,32,4.000
1764838846.4209557,0,0,32,4.000
1764838846.4249516,0,0,30,3.750
1764838846.4289515,1,1,30,3.750
1764838846.4330006,0,0,31,3.875
1764838846.4369526,0,0,31,3.875
1764838846.4409559,0,0,31,3.875
1764838846.444952,0,0,30,3.750
1764838846.4489546,1,1,30,3.750
1764838846.4529657,0,0,31,3.875
1764838846.4569547,0,0,32,4.000
1764838846.4609523,0,0,31,3.875
1764838846.4649346,0,0,30,3.750
1764838846.4689343,1,1,30,3.750
1764838846.4729557,0,0,30,3.750
1764838846.4769535,0,0,32,4.000
1764838846.4809513,0,0,31,3.875
1764838846.484934,0,0,30,3.750
1764838846.4889374,1,1,30,3.750
1764838846.4929569,0,0,30,3.750
1764838846.4969554,0,0,31,3.875
1764838846.5009568,0,0,31,3.875
1764838846.5049548,0,0,30,3.750
1764838846.508954,1,1,29,3.625
1764838846.5129614,0,0,30,3.750
1764838846.5169525,0,0,32,4.000
1764838846.5209563,0,0,32,4.000
1764838846.5249505,0,0,30,3.750
1764838846.5289526,1,1,30,3.750
1764838846.5329936,0,0,31,3.875
1764838846.5369542,0,0,32,4.000
1764838846.540954,0,0,31,3.875
1764838846.544951,0,0,30,3.750
1764838846.5489514,1,1,30,3.750
1764838846.5529513,0,0,31,3.875
1764838846.5569358,0,0,32,4.000
1764838846.5609493,0,0,31,3.875
1764838846.5649507,0,0,30,3.750
1764838846.5690231,1,1,30,3.750
1764838846.5729651,0,0,30,3.750
1764838846.576936,0,0,31,3.875
1764838846.5809503,0,0,31,3.875
1764838846.5849514,0,0,30,3.750
1764838846.58895,1,1,29,3.625
1764838846.5929468,0,0,31,3.875
1764838846.596936,0,0,32,4.000
1764838846.600947,0,0,32,4.000
1764838846.6049545,0,0,30,3.750
1764838846.6089509,1,1,29,3.625
1764838846.612957,0,0,30,3.750
1764838846.616953,0,0,32,4.000
1764838846.6209557,0,0,30,3.750
1764838846.6249502,0,0,30,3.750
1764838846.6289482,1,1,30,3.750
1764838846.6329918,0,0,31,3.875
1764838846.6369514,0,0,32,4.000
1764838846.6409566,0,0,32,4.000
1764838846.6449506,0,0,30,3.750
1764838846.6489491,1,1,30,3.750
1764838846.6529548,0,0,30,3.750
1764838846.656949,0,0,31,3.875
1764838846.6609595,0,0,32,4.000
1764838846.6649537,0,0,31,3.875
1764838846.6689472,1,1,30,3.750
1764838846.6729546,0,0,31,3.875
1764838846.6769483,0,0,32,4.000
1764838846.6809533,0,0,31,3.875
1764838846.684953,0,0,30,3.750
1764838846.688951,1,1,30,3.750
1764838846.6929426,0,0,30,3.750
1764838846.6969304,0,0,32,4.000
1764838846.7009437,0,0,32,4.000
1764838846.7049518,0,0,31,3.875
1764838846.7089503,1,1,29,3.625
1764838846.7129424,0,0,30,3.750
1764838846.7169306,0,0,32,4.000
1764838846.7209504,0,0,32,4.000
1764838846.7249522,0,0,30,3.750
1764838846.7289512,1,1,30,3.750
1764838846.7329695,0,0,30,3.750
1764838846.7369506,0,0,32,4.000
1764838846.7409546,0,0,31,3.875
1764838846.744952,0,0,30,3.750
1764838846.7489507,1,1,30,3.750
1764838846.7529595,0,0,30,3.750
1764838846.7569475,0,0,32,4.000
1764838846.7609544,0,0,31,3.875
1764838846.7649477,0,0,31,3.875
1764838846.7690253,1,1,30,3.750
1764838846.7729595,0,0,30,3.750
1764838846.776933,0,0,31,3.875
1764838846.780942,0,0,32,4.000
1764838846.784951,0,0,30,3.750
1764838846.7889507,1,1,30,3.750
1764838846.7929466,0,0,30,3.750
1764838846.796931,0,0,31,3.875
1764838846.8009467,0,0,32,4.000
1764838846.804947,0,0,31,3.875
1764838846.8089442,1,1,30,3.750
1764838846.8129485,0,0,30,3.750
1764838846.8169508,0,0,31,3.875
1764838846.8209507,0,0,32,4.000
1764838846.8249454,0,0,31,3.875
1764838846.8289454,1,1,30,3.750
1764838846.8329568,0,0,31,3.875
1764838846.8369863,0,0,32,4.000
1764838846.840952,0,0,31,3.875
1764838846.8449454,0,0,31,3.875
1764838846.8489487,1,1,30,3.750
1764838846.8529544,0,0,30,3.750
1764838846.856947,0,0,31,3.875
1764838846.86095,0,0,32,4.000
1764838846.8649457,0,0,31,3.875
1764838846.8689444,1,1,30,3.750
1764838846.8729415,0,0,30,3.750
1764838846.8769312,0,0,32,4.000
1764838846.8809533,0,0,31,3.875
1764838846.8849518,0,0,31,3.875
1764838846.8889463,1,1,30,3.750
1764838846.8929365,0,0,30,3.750
1764838846.896931,0,0,31,3.875
1764838846.9009442,0,0,32,4.000
1764838846.904946,0,0,31,3.875
1764838846.9089453,1,1,30,3.750
1764838846.9129393,0,0,30,3.750
1764838846.9169307,0,0,31,3.875
1764838846.9209569,0,0,31,3.875
1764838846.9249444,0,0,31,3.875
1764838846.928943,1,1,29,3.625
1764838846.9329457,0,0,30,3.750
1764838846.9369648,0,0,31,3.875
1764838846.9409392,0,0,32,4.000
1764838846.944947,0,0,31,3.875
1764838846.948943,1,1,29,3.625
1764838846.9529483,0,0,31,3.875
1764838846.9569423,0,0,32,4.000
1764838846.96095,0,0,31,3.875
1764838846.9649436,0,0,30,3.750
1764838846.9738653,0,0,31,3.875
1764838846.976969,0,0,31,3.875
1764838846.980958,0,0,31,3.875
1764838846.9849336,0,0,29,3.625
1764838846.9889283,1,1,29,3.625
1764838846.993066,0,0,31,3.875
1764838846.9969482,0,0,31,3.875
1764838847.0009496,0,0,31,3.875
1764838847.004934,0,0,30,3.750
1764838847.008933,1,1,30,3.750
1764838847.0129495,0,0,31,3.875
1764838847.0169446,0,0,32,4.000
1764838847.0209498,0,0,31,3.875
1764838847.0249474,0,0,30,3.750
1764838847.0289457,1,1,30,3.750
1764838847.0329473,0,0,31,3.875
1764838847.0369816,0,0,32,4.000
1764838847.0409536,0,0,32,4.000
1764838847.0449445,0,0,30,3.750
1764838847.0489464,1,1,30,3.750
1764838847.0529366,0,0,31,3.875
1764838847.0569258,0,0,32,4.000
1764838847.0609636,0,0,31,3.875
1764838847.064949,0,0,29,3.625
1764838847.068949,1,1,29,3.625
1764838847.0729556,0,0,30,3.750
1764838847.0769434,0,0,31,3.875
1764838847.0809493,0,0,31,3.875
1764838847.0849466,0,0,30,3.750
1764838847.0889497,1,1,30,3.750
1764838847.0929785,0,0,31,3.875
1764838847.0969462,0,0,32,4.000
1764838847.1009455,0,0,31,3.875
1764838847.104945,0,0,30,3.750
1764838847.1089463,1,1,30,3.750
1764838847.1129484,0,0,31,3.875
1764838847.1169422,0,0,32,4.000
1764838847.1209433,0,0,31,3.875
1764838847.124928,0,0,30,3.750
1764838847.1289275,1,1,30,3.750
1764838847.1329324,0,0,31,3.875
1764838847.1369581,0,0,32,4.000
1764838847.1409373,0,0,31,3.875
1764838847.1449425,0,0,30,3.750
1764838847.1489434,1,1,30,3.750
1764838847.1529512,0,0,30,3.750
1764838847.1569438,0,0,32,4.000
1764838847.1609457,0,0,31,3.875
1764838847.1649404,0,0,30,3.750
1764838847.168943,1,1,29,3.625
1764838847.1730294,0,0,31,3.875
1764838847.1769557,0,0,32,4.000
1764838847.1809433,0,0,32,4.000
1764838847.1849272,0,0,29,3.625
1764838847.1889267,1,1,30,3.750
1764838847.192945,0,0,30,3.750
1764838847.1969419,0,0,31,3.875
1764838847.2009416,0,0,31,3.875
1764838847.2049267,0,0,30,3.750
1764838847.2089238,1,1,30,3.750
1764838847.212945,0,0,30,3.750
1764838847.2169425,0,0,32,4.000
1764838847.2209451,0,0,31,3.875
1764838847.2249372,0,0,30,3.750
1764838847.2289352,1,1,30,3.750
1764838847.2329464,0,0,31,3.875
1764838847.236942,0,0,32,4.000
1764838847.2409835,0,0,31,3.875
1764838847.245305,0,0,30,3.750
1764838847.2490723,1,1,29,3.625
1764838847.252962,0,0,30,3.750
1764838847.2569437,0,0,32,4.000
1764838847.2609413,0,0,32,4.000
1764838847.264935,0,0,30,3.750
1764838847.2689335,1,1,30,3.750
1764838847.2729383,0,0,30,3.750
1764838847.276939,0,0,32,4.000
1764838847.2809384,0,0,31,3.875
1764838847.2849383,0,0,30,3.750
1764838847.2889352,1,1,29,3.625
1764838847.2929404,0,0,30,3.750
1764838847.2969398,0,0,32,4.000
1764838847.3009658,0,0,31,3.875
1764838847.3050802,0,0,30,3.750
1764838847.3089974,1,1,30,3.750
1764838847.312955,0,0,30,3.750
1764838847.3169367,0,0,31,3.875
1764838847.3209379,0,0,32,4.000
1764838847.324935,0,0,31,3.875
1764838847.328932,1,1,30,3.750
1764838847.332934,0,0,30,3.750
1764838847.3369339,0,0,32,4.000
1764838847.3409781,0,0,31,3.875
1764838847.3449395,0,0,31,3.875
1764838847.3489373,1,1,30,3.750
1764838847.3529463,0,0,30,3.750
1764838847.3569381,0,0,31,3.875
1764838847.360943,0,0,32,4.000
1764838847.3649373,0,0,30,3.750
1764838847.3689375,1,1,31,3.875
1764838847.373003,0,0,30,3.750
1764838847.3769362,0,0,32,4.000
1764838847.3809724,0,0,32,4.000
1764838847.3849285,0,0,30,3.750
1764838847.388926,1,1,30,3.750
1764838847.3929422,0,0,30,3.750
1764838847.3969371,0,0,32,4.000
1764838847.4009385,0,0,31,3.875
1764838847.4049268,0,0,30,3.750
1764838847.4089258,1,1,30,3.750
1764838847.4129403,0,0,30,3.750
1764838847.4169378,0,0,31,3.875
1764838847.4209394,0,0,31,3.875
1764838847.4249341,0,0,31,3.875
1764838847.4289355,1,1,30,3.750
1764838847.4329536,0,0,30,3.750
1764838847.4369378,0,0,31,3.875
1764838847.4409733,0,0,31,3.875
1764838847.4449239,0,0,31,3.875
1764838847.4489243,1,1,30,3.750
1764838847.4529383,0,0,30,3.750
1764838847.4569354,0,0,32,4.000
1764838847.4609373,0,0,31,3.875
1764838847.4649208,0,0,31,3.875
1764838847.4689233,1,1,29,3.625
1764838847.472943,0,0,30,3.750
1764838847.4769382,0,0,31,3.875
1764838847.4809406,0,0,32,4.000
1764838847.4849331,0,0,31,3.875
1764838847.4889336,1,1,30,3.750
1764838847.4929404,0,0,29,3.625
1764838847.4969375,0,0,31,3.875
1764838847.5009398,0,0,32,4.000
1764838847.504935,0,0,31,3.875
1764838847.508932,1,1,30,3.750
1764838847.5129426,0,0,30,3.750
1764838847.5169373,0,0,31,3.875
1764838847.5209384,0,0,32,4.000
1764838847.5249314,0,0,30,3.750
1764838847.5289326,1,1,30,3.750
1764838847.5329387,0,0,30,3.750
1764838847.536936,0,0,31,3.875
1764838847.540972,0,0,31,3.875
1764838847.5449338,0,0,31,3.875
1764838847.5489323,1,1,30,3.750
1764838847.552933,0,0,30,3.750
1764838847.5569239,0,0,32,4.000
1764838847.5609305,0,0,32,4.000
1764838847.5649316,0,0,31,3.875
1764838847.5689304,1,1,30,3.750
1764838847.5730143,0,0,29,3.625
1764838847.5769498,0,0,31,3.875
1764838847.5809371,0,0,32,4.000
1764838847.5849216,0,0,31,3.875
1764838847.5889196,1,1,30,3.750
1764838847.5929368,0,0,29,3.625
1764838847.5969381,0,0,31,3.875
1764838847.6009395,0,0,32,4.000
1764838847.6049235,0,0,31,3.875
1764838847.6089213,1,1,31,3.875
1764838847.612938,0,0,30,3.750
1764838847.6169362,0,0,32,4.000
1764838847.620937,0,0,32,4.000
1764838847.6249316,0,0,31,3.875
1764838847.6289277,1,1,30,3.750
1764838847.632934,0,0,31,3.875
1764838847.6369317,0,0,32,4.000
1764838847.640938,0,0,31,3.875
1764838847.6449716,0,0,30,3.750
1764838847.64893,1,1,30,3.750
1764838847.6529334,0,0,31,3.875
1764838847.6569319,0,0,31,3.875
1764838847.6609387,0,0,31,3.875
1764838847.6649344,0,0,30,3.750
1764838847.668931,1,1,30,3.750
1764838847.6729355,0,0,31,3.875
1764838847.676931,0,0,32,4.000
1764838847.6809392,0,0,31,3.875
1764838847.6849306,0,0,30,3.750
1764838847.6889288,1,1,31,3.875
1764838847.6929312,0,0,31,3.875
1764838847.6969318,0,0,32,4.000
1764838847.7009375,0,0,31,3.875
1764838847.7049375,0,0,30,3.750
1764838847.708931,1,1,30,3.750
1764838847.7129264,0,0,30,3.750
1764838847.7169182,0,0,32,4.000
1764838847.7209234,0,0,31,3.875
1764838847.7249296,0,0,30,3.750
1764838847.7289288,1,1,30,3.750
1764838847.7329257,0,0,30,3.750
1764838847.736919,0,0,32,4.000
1764838847.740927,0,0,32,4.000
1764838847.7449484,0,0,29,3.625
1764838847.7489316,1,1,30,3.750
1764838847.752938,0,0,31,3.875
1764838847.756933,0,0,32,4.000
1764838847.760935,0,0,31,3.875
1764838847.764928,0,0,30,3.750
1764838847.7689302,1,1,30,3.750
1764838847.7730193,0,0,31,3.875
1764838847.7769418,0,0,32,4.000
1764838847.7809334,0,0,31,3.875
1764838847.7849176,0,0,30,3.750
1764838847.7889204,1,1,30,3.750
1764838847.7929368,0,0,31,3.875
1764838847.796935,0,0,31,3.875
1764838847.8009305,0,0,32,4.000
1764838847.8049176,0,0,29,3.625
1764838847.8089201,1,1,30,3.750
1764838847.8129368,0,0,31,3.875
1764838847.8169339,0,0,32,4.000
1764838847.8209348,0,0,31,3.875
1764838847.824925,0,0,29,3.625
1764838847.8289263,1,1,29,3.625
1764838847.8329377,0,0,31,3.875
1764838847.836931,0,0,32,4.000
1764838847.8409312,0,0,31,3.875
1764838847.8449616,0,0,30,3.750
1764838847.848928,1,1,29,3.625
1764838847.8529348,0,0,31,3.875
1764838847.8569305,0,0,32,4.000
1764838847.8609354,0,0,32,4.000
1764838847.8649254,0,0,30,3.750
1764838847.8689253,1,1,29,3.625
1764838847.8729372,0,0,30,3.750
1764838847.8769302,0,0,32,4.000
1764838847.8809347,0,0,32,4.000
1764838847.8849251,0,0,30,3.750
1764838847.8889234,1,1,29,3.625
1764838847.8929214,0,0,30,3.750
1764838847.896918,0,0,32,4.000
1764838847.9009395,0,0,31,3.875
1764838847.904936,0,0,30,3.750
1764838847.908926,1,1,29,3.625
1764838847.9129233,0,0,30,3.750
1764838847.9169178,0,0,32,4.000
1764838847.9209256,0,0,32,4.000
1764838847.924928,0,0,30,3.750
1764838847.928924,1,1,29,3.625
1764838847.932921,0,0,30,3.750
1764838847.936918,0,0,32,4.000
1764838847.9409304,0,0,31,3.875
1764838847.9449632,0,0,30,3.750
1764838847.9489272,1,1,30,3.750
1764838847.9529252,0,0,30,3.750
1764838847.956917,0,0,32,4.000
1764838847.9609249,0,0,32,4.000
1764838847.9649277,0,0,30,3.750
1764838847.9689236,1,1,29,3.625
1764838847.977876,0,0,32,4.000
1764838847.9809642,0,0,31,3.875
1764838847.9849195,0,0,30,3.750
1764838847.9889166,1,1,29,3.625
1764838847.9929354,0,0,30,3.750
1764838847.9969325,0,0,31,3.875
1764838848.0009377,0,0,32,4.000
1764838848.0049248,0,0,30,3.750
1764838848.0089204,1,1,29,3.625
1764838848.0129352,0,0,30,3.750
1764838848.0169313,0,0,32,4.000
1764838848.0209386,0,0,32,4.000
1764838848.0249352,0,0,30,3.750
1764838848.0289323,1,1,30,3.750
1764838848.032935,0,0,29,3.625
1764838848.0369291,0,0,32,4.000
1764838848.0409367,0,0,32,4.000
1764838848.0449333,0,0,31,3.875
1764838848.0489802,1,1,29,3.625
1764838848.0529296,0,0,30,3.750
1764838848.0569158,0,0,31,3.875
1764838848.060925,0,0,32,4.000
1764838848.0649345,0,0,30,3.750
1764838848.0689354,1,1,30,3.750
1764838848.072937,0,0,30,3.750
1764838848.0769293,0,0,32,4.000
1764838848.0809357,0,0,31,3.875
1764838848.0849307,0,0,31,3.875
1764838848.0889313,1,1,30,3.750
1764838848.0929399,0,0,30,3.750
1764838848.0969307,0,0,31,3.875
1764838848.1009345,0,0,32,4.000
1764838848.1049285,0,0,31,3.875
1764838848.1089308,1,1,30,3.750
1764838848.1129394,0,0,30,3.750
1764838848.116931,0,0,31,3.875
1764838848.1209364,0,0,31,3.875
1764838848.1249352,0,0,31,3.875
1764838848.1289322,1,1,30,3.750
1764838848.132927,0,0,30,3.750
1764838848.136916,0,0,31,3.875
1764838848.1409168,0,0,32,4.000
1764838848.14493,0,0,31,3.875
1764838848.1489675,1,1,30,3.750
1764838848.152923,0,0,30,3.750
1764838848.1569147,0,0,31,3.875
1764838848.1609254,0,0,32,4.000
1764838848.164932,0,0,31,3.875
1764838848.1689312,1,1,30,3.750
1764838848.1729283,0,0,30,3.750
1764838848.1769896,0,0,31,3.875
1764838848.1809478,0,0,31,3.875
1764838848.1849167,0,0,31,3.875
1764838848.1889124,1,1,30,3.750
1764838848.1929333,0,0,30,3.750
1764838848.196932,0,0,32,4.000
1764838848.2009325,0,0,31,3.875
1764838848.2049127,0,0,31,3.875
1764838848.2089133,1,1,30,3.750
1764838848.212933,0,0,30,3.750
1764838848.216932,0,0,31,3.875
1764838848.220937,0,0,32,4.000
1764838848.2249289,0,0,31,3.875
1764838848.2289264,1,1,29,3.625
1764838848.2329283,0,0,30,3.750
1764838848.236929,0,0,31,3.875
1764838848.2409348,0,0,31,3.875
1764838848.2452958,0,0,31,3.875
1764838848.2491188,1,1,30,3.750
1764838848.2529564,0,0,30,3.750
1764838848.2569404,0,0,32,4.000
1764838848.2609317,0,0,32,4.000
1764838848.2649314,0,0,31,3.875
1764838848.2689254,1,1,30,3.750
1764838848.2729287,0,0,30,3.750
1764838848.2769272,0,0,31,3.875
1764838848.280931,0,0,32,4.000
1764838848.284928,0,0,31,3.875
1764838848.2889237,1,1,30,3.750
1764838848.2929296,0,0,31,3.875
1764838848.2969275,0,0,32,4.000
1764838848.3009274,0,0,32,4.000
1764838848.3049157,0,0,31,3.875
1764838848.308913,1,1,30,3.750
1764838848.3129277,0,0,31,3.875
1764838848.3169267,0,0,31,3.875
1764838848.320931,0,0,31,3.875
1764838848.3249276,0,0,30,3.750
1764838848.3289287,1,1,30,3.750
1764838848.332934,0,0,31,3.875
1764838848.3369257,0,0,31,3.875
1764838848.3409328,0,0,31,3.875
1764838848.3449292,0,0,30,3.750
1764838848.3489645,1,1,31,3.875
1764838848.3529282,0,0,31,3.875
1764838848.3569248,0,0,32,4.000
1764838848.3609269,0,0,32,4.000
1764838848.3649273,0,0,30,3.750
1764838848.3689275,1,1,30,3.750
1764838848.372935,0,0,31,3.875
1764838848.3770056,0,0,32,4.000
1764838848.3809447,0,0,31,3.875
1764838848.3849146,0,0,31,3.875
1764838848.3889132,1,1,30,3.750
1764838848.3929343,0,0,31,3.875
1764838848.3969257,0,0,32,4.000
1764838848.4009287,0,0,32,4.000
1764838848.404913,0,0,30,3.750
1764838848.4089127,1,1,30,3.750
1764838848.4129183,0,0,31,3.875
1764838848.4169102,0,0,31,3.875
1764838848.4209604,0,0,31,3.875
1764838848.42493,0,0,30,3.750
1764838848.4289296,1,1,30,3.750
1764838848.4329283,0,0,31,3.875
1764838848.4369266,0,0,31,3.875
1764838848.44093,0,0,31,3.875
1764838848.4449244,0,0,30,3.750
1764838848.4489262,1,1,30,3.750
1764838848.4529352,0,0,30,3.750
1764838848.4569278,0,0,32,4.000
1764838848.4609282,0,0,31,3.875
1764838848.4649222,0,0,30,3.750
1764838848.4689255,1,1,29,3.625
1764838848.4729295,0,0,30,3.750
1764838848.4769278,0,0,31,3.875
1764838848.4809287,0,0,31,3.875
1764838848.4849238,0,0,30,3.750
1764838848.4889247,1,1,30,3.750
1764838848.4929342,0,0,31,3.875
1764838848.496924,0,0,32,4.000
1764838848.5009294,0,0,31,3.875
1764838848.504929,0,0,30,3.750
1764838848.5089242,1,1,30,3.750
1764838848.5129256,0,0,30,3.750
1764838848.5169244,0,0,32,4.000
1764838848.5209434,0,0,31,3.875
1764838848.52493,0,0,30,3.750
1764838848.5289245,1,1,29,3.625
1764838848.5329208,0,0,31,3.875
1764838848.5369096,0,0,32,4.000
1764838848.5409234,0,0,31,3.875
1764838848.5449255,0,0,30,3.750
1764838848.5489223,1,1,30,3.750
1764838848.553015,0,0,30,3.750
1764838848.5569518,0,0,31,3.875
1764838848.5609677,0,0,31,3.875
1764838848.5649729,0,0,30,3.750
1764838848.5689669,1,1,30,3.750
1764838848.5729773,0,0,31,3.875
1764838848.5770466,0,0,32,4.000
1764838848.5809803,0,0,31,3.875
1764838848.5849555,0,0,30,3.750
1764838848.5889485,1,1,30,3.750
1764838848.5929713,0,0,30,3.750
1764838848.5969703,0,0,32,4.000
1764838848.6009703,0,0,31,3.875
1764838848.6049519,0,0,31,3.875
1764838848.6089516,1,1,30,3.750
1764838848.6129706,0,0,31,3.875
1764838848.6169684,0,0,32,4.000
1764838848.620972,0,0,32,4.000
1764838848.6249676,0,0,31,3.875
1764838848.628968,1,1,29,3.625
