Timestamp,LO_plus,LO_minus,Raw_ADC,Voltage_mV
1764837618.2222762,1,1,1273,159.125
1764837618.2241213,0,0,1273,159.125
1764837618.225842,0,0,-871,-108.875
1764837618.2284043,0,0,-871,-108.875
1764837618.2324195,0,0,2552,319.000
1764837618.2364075,0,0,3044,380.500
1764837618.2404017,1,1,1161,145.125
1764837618.2444468,0,0,-835,-104.375
1764837618.2484107,0,0,-1194,-149.250
1764837618.252401,0,0,2586,323.250
1764837618.2564027,0,0,3220,402.500
1764837618.2604055,1,1,1292,161.500
1764837618.2644007,0,0,-720,-90.000
1764837618.2683983,0,0,-1427,-178.375
1764837618.2724009,0,0,925,115.625
1764837618.2763996,0,0,2021,252.625
1764837618.2804031,1,1,890,111.250
1764837618.2844045,0,0,-684,-85.500
1764837618.288448,0,0,-1560,-195.000
1764837618.2924075,0,0,2370,296.250
1764837618.2964044,0,0,3113,389.125
1764837618.3004153,1,1,1258,157.250
1764837618.3044093,0,0,-719,-89.875
1764837618.308406,0,0,-1331,-166.375
1764837618.3124018,0,0,2265,283.125
1764837618.3164017,0,0,3292,411.500
1764837618.3204203,1,1,1440,180.000
1764837618.3244095,0,0,-601,-75.125
1764837618.3284202,0,0,-1318,-164.750
1764837618.3324454,0,0,2556,319.500
1764837618.3364158,0,0,3706,463.250
1764837618.3404088,1,1,1659,207.375
1764837618.3443995,0,0,-496,-62.000
1764837618.3484075,0,0,-1405,-175.625
1764837618.3524494,0,0,2462,307.750
1764837618.3564312,0,0,3712,464.000
1764837618.36041,1,1,1674,209.250
1764837618.3644001,0,0,-396,-49.500
1764837618.3684058,0,0,-1493,-186.625
1764837618.372415,0,0,3244,405.500
1764837618.3764153,0,0,4301,537.625
1764837618.380411,1,1,1843,230.375
1764837618.384441,0,0,-473,-59.125
1764837618.3884275,0,0,-1484,-185.500
1764837618.3923988,0,0,3037,379.625
1764837618.3963995,0,0,4431,553.875
1764837618.4004142,1,1,2019,252.375
1764837618.4044101,0,0,-337,-42.125
1764837618.4084074,0,0,-1682,-210.250
1764837618.4123976,0,0,3050,381.250
1764837618.4164708,0,0,4511,563.875
1764837618.42041,1,1,2049,256.125
1764837618.4244492,0,0,-335,-41.875
1764837618.4284146,0,0,-1403,-175.375
1764837618.4324176,0,0,4085,510.625
1764837618.4364123,0,0,5500,687.500
1764837618.4404063,1,1,2474,309.250
1764837618.4444,0,0,-360,-45.000
1764837618.4484062,0,0,-1664,-208.000
1764837618.4524047,0,0,3013,376.625
1764837618.4565032,0,0,4709,588.625
1764837618.4604156,1,1,2157,269.625
1764837618.4644,0,0,-377,-47.125
1764837618.4684126,0,0,-1578,-197.250
1764837618.4724085,0,0,2797,349.625
1764837618.4764066,0,0,4843,605.375
1764837618.480402,1,1,2356,294.500
1764837618.484398,0,0,-250,-31.250
1764837618.4884071,0,0,-1685,-210.625
1764837618.4923968,0,0,2521,315.125
1764837618.496424,0,0,4661,582.625
1764837618.5004385,1,1,2272,284.000
1764837618.5044098,0,0,-259,-32.375
1764837618.5084095,0,0,-1752,-219.000
1764837618.5124097,0,0,2699,337.375
1764837618.5164044,0,0,4943,617.875
1764837618.5204067,1,1,2421,302.625
1764837618.5244577,0,0,-262,-32.750
1764837618.5284207,0,0,-1684,-210.500
1764837618.5323992,0,0,4056,507.000
1764837618.5363972,0,0,6446,805.750
1764837618.540412,1,1,3196,399.500
1764837618.5444474,0,0,-201,-25.125
1764837618.5484138,0,0,-1777,-222.125
1764837618.552399,0,0,3791,473.875
1764837618.5563955,0,0,6407,800.875
1764837618.56041,1,1,3229,403.625
1764837618.5644062,0,0,-211,-26.375
1764837618.5684023,0,0,-1708,-213.500
1764837618.5723982,0,0,2212,276.500
1764837618.5763977,0,0,4999,624.875
1764837618.580399,1,1,2584,323.000
1764837618.5843968,0,0,-268,-33.500
1764837618.5884068,0,0,-1827,-228.375
1764837618.5924084,0,0,2983,372.875
1764837618.596428,0,0,5944,743.000
1764837618.6004422,1,1,3103,387.875
1764837618.6044104,0,0,-218,-27.250
1764837618.608406,0,0,-1722,-215.250
1764837618.6123965,0,0,2424,303.000
1764837618.616461,0,0,5634,704.250
1764837618.6204054,1,1,3048,381.000
1764837618.6243958,0,0,-183,-22.875
1764837618.6284025,0,0,-1721,-215.125
1764837618.6324036,0,0,2516,314.500
1764837618.6364436,0,0,5943,742.875
1764837618.640414,1,1,3301,412.625
1764837618.644395,0,0,-120,-15.000
1764837618.6484048,0,0,-1641,-205.125
1764837618.6524394,0,0,1433,179.125
1764837618.6564243,0,0,4932,616.500
1764837618.6604016,1,1,2837,354.625
1764837618.6643956,0,0,-160,-20.000
1764837618.6684053,0,0,-1671,-208.875
1764837618.6724074,0,0,1478,184.750
1764837618.6764467,0,0,5186,648.250
1764837618.6804044,1,1,3081,385.125
1764837618.6843932,0,0,-65,-8.125
1764837618.6884067,0,0,-1403,-175.375
1764837618.692405,0,0,493,61.625
1764837618.6964066,0,0,4313,539.125
1764837618.7004008,1,1,2780,347.500
1764837618.7044518,0,0,16,2.000
1764837618.7084095,0,0,-1908,-238.500
1764837618.712394,0,0,2010,251.250
1764837618.7163963,0,0,6011,751.375
1764837618.7204065,1,1,3673,459.125
1764837618.7245128,0,0,94,11.750
1764837618.728477,0,0,-1628,-203.500
1764837618.732481,0,0,1371,171.375
1764837618.7365632,0,0,5594,699.250
1764837618.7404764,1,1,3587,448.375
1764837618.744466,0,0,141,17.625
1764837618.7484798,0,0,-1532,-191.500
1764837618.7525296,0,0,846,105.750
1764837618.756535,0,0,5123,640.375
1764837618.7604704,1,1,3415,426.875
1764837618.7644658,0,0,147,18.375
1764837618.7685027,0,0,-1304,-163.000
1764837618.772481,0,0,-80,-10.000
1764837618.7765024,0,0,4312,539.000
1764837618.7804675,1,1,3225,403.125
1764837618.784466,0,0,313,39.125
1764837618.7884772,0,0,-1326,-165.750
1764837618.7924938,0,0,167,20.875
1764837618.7965395,0,0,4665,583.125
1764837618.8004854,1,1,3445,430.625
1764837618.8044674,0,0,348,43.500
1764837618.8122263,0,0,-308,-38.500
1764837618.8141458,0,0,4111,513.875
1764837618.8166265,0,0,4111,513.875
1764837618.8204813,1,1,3258,407.250
1764837618.8246295,0,0,401,50.125
1764837618.828614,0,0,-1377,-172.125
1764837618.8325121,0,0,582,72.750
1764837618.8365438,0,0,5818,727.250
1764837618.8405008,1,1,4509,563.625
1764837618.844546,0,0,793,99.125
1764837618.8485088,0,0,-1388,-173.500
1764837618.8524992,0,0,509,63.625
1764837618.856529,0,0,5815,726.875
1764837618.8605113,1,1,4553,569.125
1764837618.8645093,0,0,784,98.000
1764837618.8686645,0,0,-1350,-168.750
1764837618.872501,0,0,-421,-52.625
1764837618.876538,0,0,4214,526.750
1764837618.8804994,1,1,3574,446.750
1764837618.8845012,0,0,530,66.250
1764837618.8885465,0,0,-1304,-163.000
1764837618.8925042,0,0,-389,-48.625
1764837618.8965394,0,0,4426,553.250
1764837618.900498,1,1,3829,478.625
1764837618.9044914,0,0,654,81.750
1764837618.9084942,0,0,-1321,-165.125
1764837618.9124937,0,0,-444,-55.500
1764837618.9165266,0,0,4485,560.625
1764837618.9204965,1,1,4036,504.500
1764837618.924538,0,0,790,98.750
1764837618.9285617,0,0,-1296,-162.000
1764837618.9325206,0,0,-942,-117.750
1764837618.9365575,0,0,3229,403.625
1764837618.940495,1,1,729,91.125
1764837618.9445431,0,0,-1382,-172.750
1764837618.9485142,0,0,-230,-28.750
1764837618.9524977,0,0,5395,674.375
1764837618.9566753,0,0,4962,620.250
1764837618.9605112,1,1,1235,154.375
1764837618.9645095,0,0,-1252,-156.500
1764837618.9685056,0,0,-998,-124.750
1764837618.9724958,0,0,3153,394.125
1764837618.9766047,0,0,3428,428.500
1764837618.9805188,1,1,741,92.625
1764837618.984495,0,0,-1339,-167.375
1764837618.9885154,0,0,-871,-108.875
1764837618.992512,0,0,3786,473.250
1764837618.996544,0,0,4081,510.125
1764837619.0004976,1,1,1066,133.250
1764837619.004493,0,0,-1335,-166.875
1764837619.0085232,0,0,-1097,-137.125
1764837619.0125403,0,0,2941,367.625
1764837619.0166624,0,0,3473,434.125
1764837619.0205636,1,1,851,106.375
1764837619.0245497,0,0,-1297,-162.125
1764837619.0286086,0,0,-988,-123.500
1764837619.0325787,0,0,3594,449.250
1764837619.0365934,0,0,4240,530.000
1764837619.040561,0,0,1270,158.750
1764837619.0445807,0,0,-1209,-151.125
1764837619.048556,0,0,-921,-115.125
1764837619.0525415,0,0,4037,504.625
1764837619.0565763,0,0,4836,604.500
1764837619.0605378,0,0,1616,202.000
1764837619.0645392,1,1,-1162,-145.250
1764837619.068516,0,0,-1093,-136.625
1764837619.072532,0,0,3310,413.750
1764837619.0766292,0,0,4374,546.750
1764837619.0805585,0,0,1483,185.375
1764837619.0845392,1,1,1483,185.375
1764837619.0885344,0,0,-1109,-138.625
1764837619.0925515,0,0,-1160,-145.000
1764837619.0965788,0,0,3085,385.625
1764837619.10054,0,0,4283,535.375
1764837619.1045756,1,1,1487,185.875
1764837619.1085713,0,0,-1061,-132.625
1764837619.1125348,0,0,-1089,-136.125
1764837619.1165812,0,0,4088,511.000
1764837619.1205404,0,0,5389,673.625
1764837619.124569,1,1,2059,257.375
1764837619.1286135,0,0,-971,-121.375
1764837619.1325529,0,0,-1107,-138.375
1764837619.1365767,0,0,4300,537.500
1764837619.1405523,0,0,5779,722.375
1764837619.1445506,1,1,2304,288.000
1764837619.148545,0,0,-907,-113.375
1764837619.152536,0,0,-1331,-166.375
1764837619.156584,0,0,3021,377.625
1764837619.1605465,0,0,4764,595.500
1764837619.1645424,1,1,1901,237.625
1764837619.1685991,0,0,-892,-111.500
1764837619.172561,0,0,-1356,-169.500
1764837619.1765854,0,0,3329,416.125
1764837619.1805377,0,0,5184,648.000
1764837619.1845376,1,1,2142,267.750
1764837619.1885319,0,0,-871,-108.875
1764837619.192553,0,0,-1309,-163.625
1764837619.19658,0,0,466,58.250
1764837619.2005334,0,0,2783,347.875
1764837619.2045383,1,1,1274,159.250
1764837619.2085364,0,0,-600,-75.000
1764837619.2125843,0,0,-1692,-211.500
1764837619.2222807,0,0,2006,250.750
1764837619.2245305,1,1,2006,250.750
1764837619.2285128,0,0,-638,-79.750
1764837619.232573,0,0,-1493,-186.625
1764837619.2365885,0,0,1761,220.125
1764837619.2405396,0,0,4285,535.625
1764837619.2445347,1,1,2079,259.875
1764837619.248529,0,0,-456,-57.000
1764837619.2525382,0,0,-1741,-217.625
1764837619.256631,0,0,2975,371.875
1764837619.260556,0,0,5517,689.625
1764837619.2645323,1,1,2671,333.875
1764837619.26853,0,0,-433,-54.125
1764837619.2725525,0,0,-1637,-204.625
1764837619.2766192,0,0,2093,261.625
1764837619.2805564,0,0,4796,599.500
1764837619.2845373,1,1,2375,296.875
1764837619.2885306,0,0,-445,-55.625
1764837619.292552,0,0,-1637,-204.625
1764837619.2965786,0,0,1429,178.625
1764837619.3005354,0,0,4257,532.125
1764837619.3045318,1,1,2178,272.250
1764837619.3085246,0,0,-413,-51.625
1764837619.3125377,0,0,-1684,-210.500
1764837619.3165684,0,0,1506,188.250
1764837619.3205566,0,0,4495,561.875
1764837619.3245926,1,1,2377,297.125
1764837619.328559,0,0,-347,-43.375
1764837619.3325346,0,0,-1579,-197.375
1764837619.3365839,0,0,938,117.250
1764837619.340554,0,0,4182,522.750
1764837619.3445535,1,1,2385,298.125
1764837619.3486006,0,0,-217,-27.125
1764837619.352558,0,0,-1527,-190.875
1764837619.356591,0,0,774,96.750
1764837619.360539,0,0,4214,526.750
1764837619.3645365,1,1,2536,317.000
1764837619.3685663,0,0,-89,-11.125
1764837619.3725607,0,0,-1789,-223.625
1764837619.376583,0,0,1888,236.000
1764837619.380549,0,0,5534,691.750
1764837619.3845465,0,0,3272,409.000
1764837619.3885515,0,0,10,1.250
1764837619.3925521,0,0,-1552,-194.000
1764837619.3965776,0,0,685,85.625
1764837619.400536,0,0,4267,533.375
1764837619.4045956,0,0,2629,328.625
1764837619.408558,0,1,-80,-10.000
1764837619.4125404,0,0,-1578,-197.250
1764837619.4165788,0,0,968,121.000
1764837619.420613,0,0,4899,612.375
1764837619.4245546,0,0,3153,394.125
1764837619.428549,1,1,119,14.875
1764837619.4325366,0,0,-1456,-182.000
1764837619.43661,0,0,521,65.125
1764837619.4405663,0,0,4565,570.625
1764837619.4445615,0,0,3079,384.875
1764837619.4485502,1,1,167,20.875
1764837619.452542,0,0,-1511,-188.875
1764837619.4567163,0,0,666,83.250
1764837619.4605985,0,0,4856,607.000
1764837619.4645588,0,0,3310,413.750
1764837619.4685476,1,1,228,28.500
1764837619.4725301,0,0,-1290,-161.250
1764837619.4765892,0,0,-169,-21.125
1764837619.480605,0,0,3916,489.500
1764837619.4845536,0,0,2873,359.125
1764837619.4885416,1,1,202,25.250
1764837619.49253,0,0,-1315,-164.375
1764837619.4965801,0,0,-284,-35.500
1764837619.5005374,0,0,3824,478.000
1764837619.5045335,0,0,2881,360.125
1764837619.50854,1,1,237,29.625
1764837619.512576,0,0,-1732,-216.500
1764837619.5165877,0,0,1249,156.125
1764837619.5205321,0,0,6318,789.750
1764837619.524529,0,0,4619,577.375
1764837619.5285282,1,1,743,92.875
1764837619.5325906,0,0,-1289,-161.125
1764837619.5366278,0,0,-113,-14.125
1764837619.5405347,0,0,4639,579.875
1764837619.5445275,0,0,3723,465.375
1764837619.5485277,1,1,585,73.125
1764837619.5525982,0,0,-1348,-168.500
1764837619.5565877,0,0,300,37.500
1764837619.5605314,0,0,5500,687.500
1764837619.5645292,0,0,4388,548.500
1764837619.5685246,1,1,799,99.875
1764837619.5725572,0,0,-1247,-155.875
1764837619.576582,0,0,-410,-51.250
1764837619.5805323,0,0,4304,538.000
1764837619.584532,0,0,3726,465.750
1764837619.5885246,1,1,673,84.125
1764837619.5925465,0,0,-1228,-153.500
1764837619.59657,0,0,-851,-106.375
1764837619.600548,0,0,3261,407.625
1764837619.6045976,0,0,3112,389.000
1764837619.6085432,1,1,549,68.625
1764837619.612528,0,0,-1308,-163.500
1764837619.6165793,0,0,-579,-72.375
1764837619.6206138,0,0,4116,514.500
1764837619.624555,0,0,3775,471.875
1764837619.6285443,1,1,773,96.625
1764837619.6325412,0,0,-1274,-159.250
1764837619.6365666,0,0,-796,-99.500
1764837619.6406374,0,0,3605,450.625
1764837619.6445692,0,0,3498,437.250
1764837619.6485438,1,1,708,88.500
1764837619.6525302,0,0,-1326,-165.750
1764837619.6565814,0,0,-659,-82.375
1764837619.6605659,0,0,4184,523.000
1764837619.664577,0,0,4091,511.375
1764837619.6685438,1,1,994,124.250
1764837619.672533,0,0,-1242,-155.250
1764837619.6765878,0,0,-1165,-145.625
1764837619.680545,0,0,2500,312.500
1764837619.6845815,0,0,2964,370.500
1764837619.6885464,1,1,664,83.000
1764837619.69253,0,0,-1241,-155.125
1764837619.696577,0,0,-1008,-126.000
1764837619.7005467,0,0,3275,409.375
1764837619.7045481,0,0,3678,459.750
1764837619.708541,1,1,984,123.000
1764837619.712602,0,0,-1180,-147.500
1764837619.7165918,0,0,-1025,-128.125
1764837619.7205255,0,0,3339,417.375
1764837619.724531,0,0,3962,495.250
1764837619.7285252,0,1,1203,150.375
1764837619.7326016,0,0,-1106,-138.250
1764837619.7365878,0,0,-1187,-148.375
1764837619.740571,0,0,2620,327.500
1764837619.7445416,0,0,3563,445.375
1764837619.7485228,0,0,1151,143.875
1764837619.7525895,0,0,-1075,-134.375
1764837619.7566004,0,0,-1184,-148.000
1764837619.7605314,0,0,2999,374.875
1764837619.764529,0,0,3852,481.500
1764837619.768519,0,0,1229,153.625
1764837619.772547,1,0,-1076,-134.500
1764837619.7765794,0,0,-1242,-155.250
1764837619.7805314,0,0,2981,372.625
1764837619.7845917,0,0,3978,497.250
1764837619.7885442,0,0,1333,166.625
1764837619.7925284,1,1,-1033,-129.125
1764837619.796579,0,0,-1247,-155.875
1764837619.8005404,0,0,-1247,-155.875
1764837619.8045392,0,0,2998,374.750
1764837619.8126812,1,0,1514,189.250
1764837619.814696,0,0,-887,-110.875
1764837619.8166432,0,0,-887,-110.875
1764837619.8206027,0,0,-624,-78.000
1764837619.824535,0,0,5865,733.125
1764837619.8285136,0,0,6666,833.250
1764837619.8325424,1,1,2733,341.625
1764837619.836583,0,0,-797,-99.625
1764837619.8405278,0,0,-1276,-159.500
1764837619.8445716,0,0,2738,342.250
1764837619.8485186,0,0,4442,555.250
1764837619.8525262,1,1,1797,224.625
1764837619.8565657,0,0,-815,-101.875
1764837619.8605316,0,0,-1441,-180.125
1764837619.8645265,0,0,1729,216.125
1764837619.8685048,0,0,3478,434.750
1764837619.8725255,1,1,1340,167.500
1764837619.8766315,0,0,-808,-101.000
1764837619.8805525,0,0,-1481,-185.125
1764837619.8845432,0,0,3110,388.750
1764837619.8885443,0,0,4990,623.750
1764837619.892543,1,1,2137,267.125
1764837619.8966181,0,0,-687,-85.875
1764837619.9005382,0,0,-1513,-189.125
1764837619.9045248,0,0,2756,344.500
1764837619.9085245,0,0,4898,612.250
1764837619.9125454,1,1,2202,275.250
1764837619.9165766,0,0,-597,-74.625
1764837619.9205258,0,0,-1540,-192.500
1764837619.924526,0,0,2433,304.125
1764837619.928521,0,0,4696,587.000
1764837619.9325309,1,1,2142,267.750
1764837619.9365864,0,0,-576,-72.000
1764837619.94059,0,0,-1620,-202.500
1764837619.9445872,0,0,2423,302.875
1764837619.9485567,0,0,4854,606.750
1764837619.9525287,1,1,2294,286.750
1764837619.9565887,0,0,-513,-64.125
1764837619.9605503,0,0,-1623,-202.875
1764837619.964548,0,0,1970,246.250
1764837619.9685364,0,0,4559,569.875
1764837619.9725227,1,1,2223,277.875
1764837619.9766307,0,0,-473,-59.125
1764837619.9805405,0,0,-1382,-172.750
1764837619.9845295,0,0,296,37.000
1764837619.9885235,0,0,3250,406.250
1764837619.9925432,1,1,1867,233.375
1764837619.99657,0,0,-209,-26.125
1764837620.0005288,0,0,-1787,-223.375
1764837620.0045257,0,0,2103,262.875
1764837620.0085094,0,0,5014,626.750
1764837620.0125256,1,1,2658,332.250
1764837620.0165615,0,0,-216,-27.000
1764837620.0206072,0,0,-1636,-204.500
1764837620.024551,0,0,1292,161.500
1764837620.0285342,0,0,4393,549.125
1764837620.0325186,1,1,2452,306.500
1764837620.03657,0,0,-174,-21.750
1764837620.040541,0,0,-1671,-208.875
1764837620.044535,0,0,1725,215.625
1764837620.0485506,0,0,5127,640.875
1764837620.0525825,1,1,2970,371.250
1764837620.0566187,0,0,-21,-2.625
1764837620.0605502,0,0,-1664,-208.000
1764837620.0645201,0,0,1254,156.750
1764837620.0685344,0,0,4684,585.500
1764837620.0725226,1,1,2765,345.625
1764837620.0765703,0,0,-51,-6.375
1764837620.0805418,0,0,-1572,-196.500
1764837620.084535,0,0,935,116.875
1764837620.0885346,0,0,4600,575.000
1764837620.0925436,1,1,2872,359.000
1764837620.096559,0,0,63,7.875
1764837620.1005304,0,0,-1589,-198.625
1764837620.1045291,0,0,954,119.250
1764837620.1085696,0,0,4730,591.250
1764837620.1125798,0,0,3000,375.000
1764837620.116577,0,0,98,12.250
1764837620.12052,0,0,-1490,-186.250
1764837620.1245186,0,0,560,70.000
1764837620.1285572,0,0,4429,553.625
1764837620.1325505,0,0,2928,366.000
1764837620.1365721,0,0,140,17.500
1764837620.140522,0,0,-1397,-174.625
1764837620.1445205,0,0,376,47.000
1764837620.1485596,0,0,4382,547.750
1764837620.1525562,0,0,3005,375.625
1764837620.1565726,1,0,210,26.250
1764837620.1605213,0,0,-1352,-169.000
1764837620.1645176,0,0,179,22.375
1764837620.1685133,0,0,4292,536.500
1764837620.172534,0,0,3058,382.250
1764837620.1765702,1,1,282,35.250
1764837620.1805217,0,0,-1362,-170.250
1764837620.1845162,0,0,120,15.000
1764837620.188513,0,0,4317,539.625
1764837620.1925807,0,0,3144,393.000
1764837620.1965876,1,1,322,40.250
1764837620.200522,0,0,-1300,-162.500
1764837620.2045171,0,0,-158,-19.750
1764837620.2085152,0,0,4076,509.500
1764837620.2125351,0,0,3090,386.250
1764837620.2165637,1,1,348,43.500
1764837620.225903,0,0,-423,-52.875
1764837620.2285147,0,0,3772,471.500
1764837620.2325227,0,0,2997,374.625
1764837620.2365642,1,1,372,46.500
1764837620.2405388,0,0,-1240,-155.000
1764837620.2445338,0,0,-530,-66.250
1764837620.24864,0,0,3818,477.250
1764837620.2525513,0,0,3269,408.625
1764837620.2565734,1,1,598,74.750
1764837620.260519,0,0,-1210,-151.250
1764837620.264514,0,0,-403,-50.375
1764837620.2685156,0,0,4203,525.375
1764837620.2725837,0,0,3592,449.000
1764837620.27658,1,1,713,89.125
1764837620.280517,0,0,-1200,-150.000
1764837620.2845163,0,0,-571,-71.375
1764837620.2885354,0,0,3933,491.625
1764837620.2925713,0,0,3500,437.500
1764837620.296573,1,1,717,89.625
1764837620.3005207,0,0,-1276,-159.500
1764837620.304529,0,0,-452,-56.500
1764837620.3085551,0,0,4334,541.750
1764837620.3125432,0,0,3855,481.875
1764837620.3165712,1,1,837,104.625
1764837620.320516,0,0,-1254,-156.750
1764837620.3245163,0,0,-835,-104.375
1764837620.328512,0,0,3393,424.125
1764837620.332533,0,0,3268,408.500
1764837620.3366103,1,1,674,84.250
1764837620.340526,0,0,-1285,-160.625
1764837620.3445117,0,0,-617,-77.125
1764837620.3484948,0,0,4241,530.125
1764837620.3525555,0,0,4084,510.500
1764837620.356554,1,1,1043,130.375
1764837620.3605165,0,0,-1231,-153.875
1764837620.3645134,0,0,-728,-91.000
1764837620.3685067,0,0,4026,503.250
1764837620.3725307,0,0,4057,507.125
1764837620.3765678,1,1,1078,134.750
1764837620.3805335,0,0,-1220,-152.500
1764837620.3845286,0,0,-837,-104.625
1764837620.388534,0,0,3845,480.625
1764837620.39253,0,0,4110,513.750
1764837620.396558,1,1,1180,147.500
1764837620.400548,0,0,-1061,-132.625
1764837620.4045448,0,0,-1298,-162.250
1764837620.4085305,0,0,1873,234.125
1764837620.4125168,0,0,2876,359.500
1764837620.4165568,1,1,938,117.250
1764837620.4205341,0,0,-998,-124.750
1764837620.424597,0,0,-1232,-154.000
1764837620.4285398,0,0,2391,298.875
1764837620.4325128,0,0,3236,404.500
1764837620.4365616,1,1,1026,128.250
1764837620.4405332,0,0,-1028,-128.500
1764837620.4445302,0,0,-1074,-134.250
1764837620.448525,0,0,3952,494.000
1764837620.4525514,0,0,4582,572.750
1764837620.4565833,1,1,1567,195.875
1764837620.460546,0,0,-1021,-127.625
1764837620.464542,0,0,-1126,-140.750
1764837620.4685385,0,0,3380,422.500
1764837620.47253,0,0,4293,536.625
1764837620.476565,1,1,1521,190.125
1764837620.480531,0,0,-973,-121.625
1764837620.4845383,0,0,-1193,-149.125
1764837620.4885356,0,0,3071,383.875
1764837620.492528,0,0,4194,524.250
1764837620.4965663,1,1,1541,192.625
1764837620.5005324,0,0,-893,-111.625
1764837620.504526,0,0,-1286,-160.750
1764837620.5085258,0,0,2909,363.625
1764837620.5125144,0,0,4197,524.625
1764837620.5165524,0,0,1590,198.750
1764837620.520536,0,0,-842,-105.250
1764837620.5245278,0,0,-1384,-173.000
1764837620.5285337,0,0,2525,315.625
1764837620.5325322,0,0,3992,499.000
1764837620.536561,0,0,1560,195.000
1764837620.5405161,1,0,-765,-95.625
1764837620.544512,0,0,-1434,-179.250
1764837620.5485132,0,0,2939,367.375
1764837620.5525315,0,0,4524,565.500
1764837620.5565875,0,0,1855,231.875
1764837620.5605278,1,0,-707,-88.375
1764837620.5645287,0,0,-1443,-180.375
1764837620.5685344,0,0,2824,353.000
1764837620.5725303,0,0,4639,579.875
1764837620.5765615,0,0,2000,250.000
1764837620.580529,1,1,-612,-76.500
1764837620.58453,0,0,-1518,-189.750
1764837620.5885348,0,0,2836,354.500
1764837620.592529,0,0,4791,598.875
1764837620.5965555,0,0,2118,264.750
1764837620.6005297,1,1,-576,-72.000
1764837620.6045296,0,0,-1579,-197.375
1764837620.6085296,0,0,1436,179.500
1764837620.6125262,0,0,3542,442.750
1764837620.6165545,0,0,1570,196.250
1764837620.6205163,1,1,-562,-70.250
1764837620.6245985,0,0,-1659,-207.375
1764837620.6285422,0,0,1953,244.125
1764837620.6325228,0,0,4229,528.625
1764837620.6365528,0,0,1986,248.250
1764837620.640532,1,1,-459,-57.375
1764837620.644531,0,0,-1652,-206.500
1764837620.6485202,0,0,2126,265.750
1764837620.6525097,0,0,4604,575.500
1764837620.656602,0,0,2261,282.625
1764837620.6605365,1,1,-364,-45.500
1764837620.6645246,0,0,-1587,-198.375
1764837620.6685228,0,0,1745,218.125
1764837620.6725206,0,0,4467,558.375
1764837620.6765664,0,0,2311,288.875
1764837620.6805248,1,1,-275,-34.375
1764837620.6845195,0,0,-1734,-216.750
1764837620.6885264,0,0,-1734,-216.750
1764837620.6925273,0,0,1981,247.625
1764837620.6965668,0,0,4734,591.750
1764837620.7005272,1,1,2449,306.125
1764837620.704522,0,0,-271,-33.875
1764837620.7085268,0,0,-1475,-184.375
1764837620.7125232,0,0,1044,130.500
1764837620.716551,0,0,4186,523.250
1764837620.720521,1,1,2412,301.500
1764837620.7245219,0,0,-79,-9.875
1764837620.7285292,0,0,-1656,-207.000
1764837620.732523,0,0,1095,136.875
1764837620.736549,0,0,4166,520.750
1764837620.7405248,1,1,2360,295.000
1764837620.744532,0,0,-124,-15.500
1764837620.748539,0,0,-1609,-201.125
1764837620.7525237,0,0,1092,136.500
1764837620.756556,0,0,4331,541.375
1764837620.7605464,1,1,2527,315.875
1764837620.7645087,0,0,-54,-6.750
1764837620.768505,0,0,-1674,-209.250
1764837620.772525,0,0,968,121.000
1764837620.77656,0,0,4223,527.875
1764837620.7805111,1,1,2480,310.000
1764837620.7845113,0,0,-70,-8.750
1764837620.788504,0,0,-1551,-193.875
1764837620.7925227,0,0,923,115.375
1764837620.7965567,0,0,4603,575.375
1764837620.8005264,1,1,2923,365.375
1764837620.8045254,0,0,155,19.375
1764837620.8086736,0,0,-1365,-170.625
1764837620.8129616,0,0,125,15.625
1764837620.816702,0,0,3875,484.375
1764837620.8205314,1,1,2668,333.500
1764837620.8245676,0,0,219,27.375
1764837620.828506,0,0,-1756,-219.500
1764837620.8325224,0,0,1350,168.750
1764837620.8365653,0,0,5337,667.125
1764837620.84051,1,1,3475,434.375
1764837620.8445067,0,0,322,40.250
1764837620.848488,0,0,-1335,-166.875
1764837620.8525105,0,0,48,6.000
1764837620.8565664,0,0,3928,491.000
1764837620.860554,1,1,2770,346.250
1764837620.8645084,0,0,234,29.250
1764837620.8684905,0,0,-1296,-162.000
1764837620.8725095,0,0,-120,-15.000
1764837620.8765516,0,0,3862,482.750
1764837620.8805227,1,1,2846,355.750
1764837620.8845224,0,0,314,39.250
1764837620.8885264,0,0,-1377,-172.125
1764837620.8925202,0,0,100,12.500
1764837620.8965511,0,0,4269,533.625
1764837620.9005232,1,1,3154,394.250
1764837620.9045274,0,0,406,50.750
1764837620.9085388,0,0,-1300,-162.500
1764837620.9125223,0,0,-231,-28.875
1764837620.9165537,0,0,3893,486.625
1764837620.9205108,0,0,2977,372.125
1764837620.9245086,0,0,371,46.375
1764837620.9284995,0,0,-1270,-158.750
1764837620.9325225,0,0,-240,-30.000
1764837620.936552,0,0,4209,526.125
1764837620.9405096,0,0,3385,423.125
1764837620.944507,0,0,586,73.250
1764837620.948501,0,0,-1200,-150.000
1764837620.9525187,0,0,-491,-61.375
1764837620.9566827,0,0,3972,496.500
1764837620.960534,0,0,3441,430.125
1764837620.9646358,0,0,722,90.250
1764837620.9685705,0,0,-1168,-146.000
1764837620.9725707,0,0,-539,-67.375
1764837620.9766188,0,0,3955,494.375
1764837620.9805636,0,0,3496,437.000
1764837620.984566,1,1,758,94.750
1764837620.988565,0,0,-1205,-150.625
1764837620.9925702,0,0,-625,-78.125
1764837620.9966013,0,0,3800,475.000
1764837621.000569,0,0,3395,424.375
1764837621.0045664,1,1,703,87.875
1764837621.0085614,0,0,-1216,-152.000
1764837621.012567,0,0,-749,-93.625
1764837621.016606,0,0,3632,454.000
1764837621.0205636,0,0,3455,431.875
1764837621.0246546,1,1,806,100.750
1764837621.0285697,0,0,-1133,-141.625
1764837621.0325472,0,0,-1153,-144.125
1764837621.0366085,0,0,2454,306.750
1764837621.0405664,0,0,2875,359.375
1764837621.0445611,1,1,798,99.750
1764837621.048543,0,0,-1056,-132.000
1764837621.0525458,0,0,-922,-115.250
1764837621.056607,0,0,3413,426.625
1764837621.0605621,0,0,3593,449.125
1764837621.0646663,1,1,1028,128.500
1764837621.0685158,0,0,-1123,-140.375
1764837621.0725222,0,0,-838,-104.750
1764837621.0765567,0,0,3828,478.500
1764837621.0805202,0,0,3979,497.375
1764837621.084511,1,1,1175,146.875
1764837621.0885115,0,0,-1162,-145.250
1764837621.0925195,0,0,-800,-100.000
1764837621.0965521,0,0,4077,509.625
1764837621.1005116,0,0,4289,536.125
1764837621.1045146,1,1,1318,164.750
1764837621.108512,0,0,-1133,-141.625
1764837621.112516,0,0,-918,-114.750
1764837621.1165457,0,0,3759,469.875
1764837621.1205046,0,0,4211,526.375
1764837621.124499,1,1,1353,169.125
1764837621.128498,0,0,-1058,-132.250
1764837621.1325173,0,0,-1080,-135.000
1764837621.136547,0,0,3178,397.250
1764837621.1405096,0,0,3913,489.125
1764837621.1445134,1,1,1310,163.750
1764837621.1485088,0,0,-1007,-125.875
1764837621.1525164,0,0,-1319,-164.875
1764837621.156545,0,0,1663,207.875
1764837621.1605287,0,0,2793,349.125
1764837621.16452,1,1,927,115.875
1764837621.168506,0,0,-924,-115.500
1764837621.1725016,0,0,-1249,-156.125
1764837621.176549,0,0,3304,413.000
1764837621.1805143,0,0,4229,528.625
1764837621.1845133,1,1,1541,192.625
1764837621.1885004,0,0,-910,-113.750
1764837621.1925006,0,0,-1240,-155.000
1764837621.196536,0,0,2472,309.000
1764837621.200519,0,0,3870,483.750
1764837621.2045114,1,1,1569,196.125
1764837621.2085073,0,0,-731,-91.375
1764837621.2125154,0,0,-1292,-161.500
1764837621.2165492,0,0,2807,350.875
1764837621.220513,0,0,4258,532.250
1764837621.2302034,0,0,-599,-74.875
1764837621.2325208,0,0,-1140,-142.500
1764837621.2365658,0,0,4849,606.125
1764837621.2405083,0,0,5952,744.000
1764837621.2445009,1,1,2409,301.125
1764837621.24851,0,0,-736,-92.000
1764837621.2525187,0,0,-1324,-165.500
1764837621.256554,0,0,3031,378.875
1764837621.2605133,0,0,4786,598.250
1764837621.2645025,1,1,2088,261.000
1764837621.2685091,0,0,-584,-73.000
1764837621.272516,0,0,-1501,-187.625
1764837621.2765567,0,0,2280,285.000
1764837621.2805207,0,0,4127,515.875
1764837621.2845156,1,1,1782,222.750
1764837621.2885194,0,0,-587,-73.375
1764837621.292519,0,0,-1570,-196.250
1764837621.2965474,0,0,2462,307.750
1764837621.300513,0,0,4485,560.625
1764837621.3045146,1,1,2031,253.875
1764837621.3085287,0,0,-506,-63.250
1764837621.312517,0,0,-1614,-201.750
1764837621.3165448,0,0,2046,255.750
1764837621.3205218,0,0,4214,526.750
1764837621.3245218,1,1,1950,243.750
1764837621.3285115,0,0,-487,-60.875
1764837621.3325043,0,0,-1496,-187.000
1764837621.3365436,0,0,1368,171.000
1764837621.3405144,0,0,3930,491.250
1764837621.3445153,1,1,2036,254.500
1764837621.3485126,0,0,-256,-32.000
1764837621.3524985,0,0,-1625,-203.125
1764837621.3565345,0,0,1556,194.500
1764837621.3605194,0,0,4089,511.125
1764837621.3645194,0,0,2088,261.000
1764837621.3685234,0,0,-266,-33.250
1764837621.372512,0,0,-1686,-210.750
1764837621.3765564,0,0,1763,220.375
1764837621.3805215,0,0,4457,557.125
1764837621.3845172,0,0,2334,291.750
1764837621.3885274,0,0,-206,-25.750
1764837621.3925157,0,0,-1632,-204.000
1764837621.3965433,0,0,1649,206.125
1764837621.4005182,0,0,4603,575.375
1764837621.404518,0,0,2543,317.875
1764837621.408519,1,0,-80,-10.000
1764837621.4125154,0,0,-1634,-204.250
1764837621.4165475,0,0,1371,171.375
1764837621.420518,0,0,4418,552.250
1764837621.4245183,0,0,2496,312.000
1764837621.428618,1,0,-59,-7.375
1764837621.4325302,0,0,-1718,-214.750
1764837621.4365566,0,0,1653,206.625
1764837621.4405053,0,0,4857,607.125
1764837621.4444964,0,0,2794,349.250
1764837621.448506,1,1,11,1.375
1764837621.452518,0,0,-1610,-201.250
1764837621.4565518,0,0,1167,145.875
1764837621.460515,0,0,4575,571.875
1764837621.464499,0,0,2768,346.000
1764837621.4685113,1,1,75,9.375
1764837621.4725552,0,0,-1716,-214.500
1764837621.476557,0,0,1435,179.375
1764837621.4805167,0,0,4952,619.000
1764837621.4845128,0,0,3006,375.750
1764837621.4885185,1,1,110,13.750
1764837621.4925194,0,0,-1515,-189.375
1764837621.4965508,0,0,810,101.250
1764837621.5004969,0,0,4534,566.750
1764837621.5044959,0,0,2933,366.625
1764837621.5085151,1,1,194,24.250
1764837621.5125194,0,0,-1747,-218.375
1764837621.5165446,0,0,1518,189.750
1764837621.5205076,0,0,5385,673.125
1764837621.524503,0,0,3418,427.250
1764837621.5284972,1,1,254,31.750
1764837621.5325167,0,0,-1503,-187.875
1764837621.5365422,0,0,758,94.750
1764837621.540514,0,0,4748,593.500
1764837621.5445163,0,0,3193,399.125
1764837621.5485227,1,1,276,34.500
1764837621.552514,0,0,-1524,-190.500
1764837621.556547,0,0,848,106.000
1764837621.5605145,0,0,5021,627.625
1764837621.564516,0,0,3434,429.250
1764837621.5685213,1,1,349,43.625
1764837621.5725346,0,0,-1504,-188.000
1764837621.5765684,0,0,619,77.375
1764837621.5805032,0,0,4826,603.250
1764837621.5845003,0,0,3370,421.250
1764837621.5885072,1,1,338,42.250
1764837621.5925143,0,0,-1246,-155.750
1764837621.5965443,0,0,-72,-9.000
1764837621.6005025,0,0,4244,530.500
1764837621.6045003,0,0,3236,404.500
1764837621.608505,1,1,439,54.875
1764837621.6125124,0,0,-1594,-199.250
1764837621.6165469,0,0,864,108.000
1764837621.6204975,0,0,5636,704.500
1764837621.6244988,0,0,4149,518.625
1764837621.6286035,1,1,659,82.375
1764837621.6325266,0,0,-1421,-177.625
1764837621.636552,0,0,407,50.875
1764837621.6405,0,0,5243,655.375
1764837621.6444962,0,0,4021,502.625
1764837621.6485014,1,1,656,82.000
1764837621.652516,0,0,-1361,-170.125
1764837621.65655,0,0,114,14.250
1764837621.6604967,0,0,4962,620.250
1764837621.6644971,0,0,3935,491.875
1764837621.6685064,1,1,656,82.000
1764837621.6725142,0,0,-1350,-168.750
1764837621.6765876,0,0,15,1.875
1764837621.6805127,0,0,5042,630.250
1764837621.684511,0,0,4140,517.500
1764837621.688516,1,1,775,96.875
1764837621.6925285,0,0,-1311,-163.875
1764837621.6965635,0,0,-278,-34.750
1764837621.700499,0,0,4549,568.625
1764837621.7044945,0,0,3858,482.250
1764837621.7085052,1,1,692,86.500
1764837621.712515,0,0,-1384,-173.000
1764837621.716544,0,0,-430,-53.750
1764837621.720495,0,0,4344,543.000
1764837621.724499,0,0,3812,476.500
1764837621.7285058,1,1,703,87.875
1764837621.7325113,0,0,-1302,-162.750
1764837621.7365403,0,0,-968,-121.000
1764837621.7405086,0,0,3046,380.750
1764837621.7445092,0,0,3146,393.250
1764837621.748515,1,1,652,81.500
1764837621.752509,0,0,-1305,-163.125
1764837621.7565374,0,0,-663,-82.875
1764837621.7605112,0,0,4090,511.250
1764837621.7645116,0,0,3933,491.625
1764837621.7685122,1,1,904,113.000
1764837621.7725065,0,0,-1245,-155.625
1764837621.7765636,0,0,-817,-102.125
1764837621.7805161,0,0,3762,470.250
1764837621.7845113,0,0,3904,488.000
1764837621.7885158,1,1,1007,125.875
1764837621.7925065,0,0,-1256,-157.000
1764837621.7965386,0,0,-1186,-148.250
1764837621.8005104,0,0,2437,304.625
1764837621.8045115,0,0,2958,369.750
1764837621.8085504,1,1,698,87.250
1764837621.8129058,0,0,-1254,-156.750
1764837621.816644,0,0,586,73.250
1764837621.8205192,0,0,6591,823.875
1764837621.8245058,0,0,6207,775.875
1764837621.8285973,1,1,2072,259.000
1764837621.8325255,0,0,-1156,-144.500
1764837621.836546,0,0,-889,-111.125
1764837621.8405104,0,0,3892,486.500
1764837621.8445048,0,0,4364,545.500
1764837621.8485072,0,0,1288,161.000
1764837621.8525054,0,0,-1250,-156.250
1764837621.8565342,0,0,-1106,-138.250
1764837621.8605092,0,0,3034,379.250
1764837621.8645055,0,0,3789,473.625
1764837621.8687148,0,0,1096,137.000
1764837621.8724966,0,0,-1281,-160.125
1764837621.8765512,0,0,-955,-119.375
1764837621.8805134,0,0,4003,500.375
1764837621.8844945,0,0,4681,585.125
1764837621.8884768,0,0,1496,187.000
1764837621.8924959,1,1,-1179,-147.375
1764837621.8965297,0,0,-1263,-157.875
1764837621.900493,0,0,2132,266.500
1764837621.9044921,0,0,3431,428.875
1764837621.908481,0,0,1168,146.000
1764837621.9124951,1,1,-1039,-129.875
1764837621.9165254,0,0,-1378,-172.250
1764837621.9204953,0,0,3469,433.625
1764837621.924491,0,0,3469,433.625
1764837621.9284933,0,0,4414,551.750
1764837621.9325123,1,1,1482,185.250
1764837621.9365537,0,0,-1119,-139.875
1764837621.9405103,0,0,-1260,-157.500
1764837621.944509,0,0,3269,408.625
1764837621.9485197,0,0,4522,565.250
1764837621.9525108,1,1,1650,206.250
1764837621.9565392,0,0,-1009,-126.125
1764837621.9605162,0,0,-1381,-172.625
1764837621.9645123,0,0,3560,445.000
1764837621.968517,0,0,4862,607.750
1764837621.9725075,1,1,1817,227.125
1764837621.9765441,0,0,-1000,-125.000
1764837621.980553,0,0,-1433,-179.125
1764837621.9845135,0,0,3327,415.875
1764837621.9885306,0,0,4825,603.125
1764837621.9925156,1,1,1862,232.750
1764837621.996543,0,0,-976,-122.000
1764837622.000507,0,0,-1532,-191.500
1764837622.0044959,0,0,2210,276.250
1764837622.008501,0,0,3936,492.000
1764837622.012508,1,1,1517,189.625
1764837622.0165436,0,0,-944,-118.000
1764837622.0204916,0,0,-1553,-194.125
1764837622.0244887,0,0,2791,348.875
1764837622.028591,0,0,4683,585.375
1764837622.0325167,1,1,1960,245.000
1764837622.0365334,0,0,-825,-103.125
1764837622.0405054,0,0,-1675,-209.375
1764837622.0445032,0,0,2531,316.375
1764837622.0484989,0,0,4515,564.375
1764837622.0524895,1,1,1873,234.125
1764837622.0565379,0,0,-849,-106.125
1764837622.0605083,0,0,-1765,-220.625
1764837622.0645044,0,0,2461,307.625
1764837622.0685108,0,0,4536,567.000
1764837622.0725017,1,1,1949,243.625
1764837622.0765438,0,0,-800,-100.000
1764837622.0805056,0,0,-1726,-215.750
1764837622.0845013,0,0,1894,236.750
1764837622.0885084,0,0,4201,525.125
1764837622.0925071,1,1,1890,236.250
1764837622.0965364,0,0,-731,-91.375
1764837622.1005,0,0,-1819,-227.375
1764837622.1045108,0,0,2032,254.000
1764837622.1085148,0,0,4442,555.250
1764837622.1125002,1,1,2058,257.250
1764837622.116485,0,0,-697,-87.125
1764837622.1204908,0,0,-1835,-229.375
1764837622.1244893,0,0,2103,262.875
1764837622.1284912,0,0,4727,590.875
1764837622.1324983,1,1,2294,286.750
1764837622.13652,0,0,-620,-77.500
1764837622.1405058,0,0,-1537,-192.125
1764837622.1445062,0,0,259,32.375
1764837622.1485124,0,0,2997,374.625
1764837622.1525013,1,1,1553,194.125
1764837622.1565337,0,0,-578,-72.250
1764837622.1605031,0,0,-1781,-222.625
1764837622.164503,0,0,1074,134.250
1764837622.1685104,0,0,3942,492.750
1764837622.1725,1,1,2076,259.500
1764837622.1765478,0,0,-486,-60.750
1764837622.180504,0,0,-1830,-228.750
1764837622.18452,0,0,1329,166.125
1764837622.1885107,0,0,4392,549.000
1764837622.1924994,1,1,2388,298.500
1764837622.1965306,0,0,-399,-49.875
1764837622.200504,0,0,-1827,-228.375
1764837622.2045043,0,0,1247,155.875
1764837622.2085059,0,0,4562,570.250
1764837622.2124984,1,1,2597,324.625
1764837622.216535,0,0,-302,-37.750
1764837622.2205038,0,0,-1590,-198.750
1764837622.2245016,0,0,686,85.750
1764837622.234119,1,1,-165,-20.625
1764837622.2365584,0,0,-165,-20.625
1764837622.2404923,0,0,-1731,-216.375
1764837622.2444887,0,0,1550,193.750
1764837622.2484958,0,0,5634,704.250
1764837622.2524984,1,1,3542,442.750
1764837622.2565331,0,0,58,7.250
1764837622.2604918,0,0,-1273,-159.125
1764837622.2644818,0,0,-880,-110.000
1764837622.2684898,0,0,2538,317.250
1764837622.2724981,1,1,1960,245.000
1764837622.2765384,0,0,-72,-9.000
1764837622.280505,0,0,-1194,-149.250
1764837622.2845407,0,0,-961,-120.125
1764837622.2885025,0,0,2419,302.375
1764837622.2925048,1,1,1977,247.125
1764837622.296543,0,0,38,4.750
1764837622.3004982,0,0,-1355,-169.375
1764837622.3044984,0,0,40,5.000
1764837622.3085084,0,0,4273,534.125
1764837622.3125017,1,1,3167,395.875
1764837622.31653,0,0,340,42.500
1764837622.3204992,0,0,-1352,-169.000
1764837622.324499,0,0,28,3.500
1764837622.3285034,0,0,4416,552.000
1764837622.3324993,0,1,3344,418.000
1764837622.3365285,0,0,415,51.875
1764837622.3404982,0,0,-1302,-162.750
1764837622.344495,0,0,-105,-13.125
1764837622.348504,0,0,4529,566.125
1764837622.352501,0,0,3614,451.750
1764837622.356529,0,0,591,73.875
1764837622.3604984,0,0,-1284,-160.500
1764837622.3645,0,0,-414,-51.750
1764837622.3684933,0,0,4066,508.250
1764837622.3724844,0,0,3408,426.000
1764837622.376527,1,0,577,72.125
1764837622.3804986,0,0,-1287,-160.875
1764837622.3845007,0,0,-393,-49.125
1764837622.3885024,0,0,4268,533.500
1764837622.3925052,0,0,3667,458.375
1764837622.3965423,0,0,703,87.875
1764837622.4004815,0,0,-1236,-154.500
1764837622.4044824,0,0,-540,-67.500
1764837622.4084947,0,0,4047,505.875
1764837622.4124987,0,0,3613,451.625
1764837622.4165337,1,0,719,89.875
1764837622.4204824,0,0,-1225,-153.125
1764837622.424482,0,0,-694,-86.750
1764837622.4284964,0,0,3796,474.500
1764837622.4325783,0,0,3592,449.000
1764837622.4365523,1,1,790,98.750
1764837622.4404867,0,0,-1261,-157.625
1764837622.444486,0,0,-584,-73.000
1764837622.4484932,0,0,4223,527.875
1764837622.4525,0,0,3973,496.625
1764837622.4565318,1,1,932,116.500
1764837622.460493,0,0,-1298,-162.250
1764837622.464483,0,0,-633,-79.125
1764837622.4685063,0,0,4214,526.750
1764837622.4724987,0,0,4070,508.750
1764837622.476532,1,1,987,123.375
1764837622.4804988,0,0,-1248,-156.000
1764837622.4844995,0,0,-934,-116.750
1764837622.4885433,0,0,3435,429.375
1764837622.492496,0,0,3779,472.375
1764837622.4965258,1,1,1040,130.000
1764837622.500499,0,0,-1205,-150.625
1764837622.5045006,0,0,-1002,-125.250
1764837622.508542,0,0,3280,410.000
1764837622.5125103,0,0,3698,462.250
1764837622.5165374,1,1,1015,126.875
1764837622.5204859,0,0,-1235,-154.375
1764837622.5244775,0,0,-970,-121.250
1764837622.5284877,0,0,3552,444.000
1764837622.5324986,0,0,3979,497.375
1764837622.5365376,1,1,1130,141.250
1764837622.5404806,0,0,-1217,-152.125
1764837622.5444782,0,0,-924,-115.500
1764837622.5484972,0,0,3859,482.375
1764837622.5524998,0,0,4430,553.750
1764837622.5565252,1,1,1396,174.500
1764837622.5604808,0,0,-1182,-147.750
1764837622.5646274,0,0,-1123,-140.375
1764837622.5685155,0,0,3029,378.625
1764837622.572482,0,0,3863,482.875
1764837622.5764837,1,1,1201,150.125
1764837622.5805018,0,0,-1154,-144.250
1764837622.5844955,0,0,-1016,-127.000
1764837622.5885313,0,0,4021,502.625
1764837622.592484,0,0,4830,603.750
1764837622.596482,1,1,1652,206.500
1764837622.6005013,0,0,-1109,-138.625
1764837622.6045005,0,0,-986,-123.250
1764837622.6085055,0,0,4242,530.250
1764837622.612513,0,0,5262,657.750
1764837622.616527,1,1,1924,240.500
1764837622.6204774,0,0,-1087,-135.875
1764837622.6244802,0,0,-1209,-151.125
1764837622.628491,0,0,2703,337.875
1764837622.6325712,0,0,4206,525.750
1764837622.6365476,1,1,1618,202.250
1764837622.6404808,0,0,-894,-111.750
1764837622.64448,0,0,-1334,-166.750
1764837622.6484907,0,0,3422,427.750
1764837622.6524947,0,0,4815,601.875
1764837622.6565294,1,1,1839,229.875
1764837622.6604807,0,0,-933,-116.625
1764837622.6644804,0,0,-1390,-173.750
1764837622.6684937,0,0,2425,303.125
1764837622.6724956,0,0,4146,518.250
1764837622.6765332,1,1,1648,206.000
1764837622.680496,0,0,-832,-104.000
1764837622.6844962,0,0,-1442,-180.250
1764837622.688501,0,0,2956,369.500
1764837622.6925328,0,0,4736,592.000
1764837622.6965244,1,1,1950,243.750
1764837622.7004976,0,0,-784,-98.000
1764837622.7044964,0,0,-1500,-187.500
1764837622.7084992,0,0,2757,344.625
1764837622.7124891,0,0,4756,594.500
1764837622.7165382,1,1,2044,255.500
1764837622.720486,0,0,-709,-88.625
1764837622.7244794,0,0,-1562,-195.250
1764837622.7284884,0,0,3042,380.250
1764837622.7324944,0,0,5184,648.000
1764837622.7365253,1,1,2302,287.750
1764837622.74048,0,0,-702,-87.750
1764837622.7444787,0,0,-1479,-184.875
1764837622.748486,0,0,1980,247.500
1764837622.7524958,0,0,4576,572.000
1764837622.7565227,1,1,2246,280.750
1764837622.7604954,0,0,-469,-58.625
1764837622.7644916,0,0,-1618,-202.250
1764837622.7684915,0,0,1764,220.500
1764837622.7724917,0,0,4380,547.500
1764837622.7765334,1,1,2152,269.000
1764837622.7804902,0,0,-471,-58.875
1764837622.7844906,0,0,-1665,-208.125
1764837622.7884955,0,0,1951,243.875
1764837622.7925057,0,0,4668,583.500
1764837622.7965286,1,1,2339,292.375
1764837622.8004916,0,0,-423,-52.875
1764837622.8044903,0,0,-1632,-204.000
1764837622.8085701,0,0,1342,167.750
1764837622.812872,0,0,4169,521.125
1764837622.8166106,1,1,2145,268.125
1764837622.8205004,0,0,-407,-50.875
1764837622.8244898,0,0,-1763,-220.375
1764837622.8284984,0,0,2037,254.625
1764837622.8325677,0,0,5043,630.375
1764837622.836541,1,1,2658,332.250
1764837622.8404922,0,0,-313,-39.125
1764837622.8444896,0,0,-1627,-203.375
1764837622.8484945,0,0,1426,178.250
1764837622.8524907,0,0,4659,582.375
1764837622.856517,1,1,2597,324.625
1764837622.8604944,0,0,-238,-29.750
1764837622.8644936,0,0,-1445,-180.625
1764837622.8688636,0,0,285,35.625
1764837622.8731723,0,0,3700,462.500
1764837622.876609,1,1,2303,287.875
1764837622.8805058,0,0,-93,-11.625
1764837622.8844984,0,0,-1691,-211.375
1764837622.8884978,0,0,1433,179.125
1764837622.8924916,0,0,5037,629.625
1764837622.896571,0,0,3033,379.125
1764837622.900499,0,0,1,0.125
1764837622.9044929,0,0,-1194,-149.250
1764837622.9084954,0,0,-549,-68.625
1764837622.912502,0,0,3036,379.500
1764837622.9165308,0,0,2234,279.250
1764837622.9204915,0,0,137,17.125
1764837622.9244826,0,0,-1836,-229.500
1764837622.9284916,0,0,1531,191.375
1764837622.932492,0,0,5411,676.375
1764837622.9365249,0,0,3435,429.375
1764837622.9404778,1,1,226,28.250
1764837622.9444816,0,0,-1491,-186.375
1764837622.9484773,0,0,719,89.875
1764837622.9524922,0,0,4760,595.000
1764837622.9565208,0,0,3208,401.000
1764837622.9605172,1,1,252,31.500
1764837622.964495,0,0,-1421,-177.625
1764837622.9684956,0,0,558,69.750
1764837622.9724913,0,0,4838,604.750
1764837622.9765315,0,0,3414,426.750
1764837622.9804919,1,1,377,47.125
1764837622.984491,0,0,-1355,-169.375
1764837622.9884996,0,0,405,50.625
1764837622.9924946,0,0,4861,607.625
1764837622.9965591,0,0,3553,444.125
1764837623.000495,1,1,466,58.250
1764837623.0044916,0,0,-1270,-158.750
1764837623.0084963,0,0,66,8.250
1764837623.0124872,0,0,4593,574.125
1764837623.0165215,0,0,3521,440.125
1764837623.020472,1,1,526,65.750
1764837623.024484,0,0,-1251,-156.375
1764837623.0284808,0,0,-571,-71.375
1764837623.032577,0,0,3474,434.250
1764837623.0365412,0,0,2812,351.500
1764837623.040477,1,1,324,40.500
1764837623.0444694,0,0,-1562,-195.250
1764837623.0484807,0,0,601,75.125
1764837623.0524914,0,0,5600,700.000
1764837623.0565212,0,0,4313,539.125
1764837623.06047,1,1,775,96.875
1764837623.0644667,0,0,-1325,-165.625
1764837623.0684853,0,0,-125,-15.625
1764837623.0724928,0,0,4687,585.875
1764837623.0765285,0,0,3834,479.250
1764837623.0804894,1,1,675,84.375
1764837623.084485,0,0,-1308,-163.500
1764837623.0884953,0,0,-182,-22.750
1764837623.0924904,0,0,4797,599.625
1764837623.096525,0,0,4072,509.000
1764837623.100504,1,1,816,102.000
1764837623.1044934,0,0,-1274,-159.250
1764837623.1085932,0,0,-339,-42.375
1764837623.112503,0,0,4638,579.750
1764837623.1165154,0,0,4101,512.625
1764837623.120488,1,1,874,109.250
1764837623.124485,0,0,-1396,-174.500
1764837623.1285005,0,0,175,21.875
1764837623.1324854,0,0,5909,738.625
1764837623.1365151,0,0,5103,637.875
1764837623.1404922,1,1,1212,151.500
1764837623.14449,0,0,-1334,-166.750
1764837623.1485019,0,0,-283,-35.375
1764837623.1524892,0,0,5080,635.000
1764837623.1565177,0,0,4642,580.250
1764837623.1605487,1,1,1086,135.750
1764837623.1645033,0,0,-1377,-172.125
1764837623.1684954,0,0,-53,-6.625
1764837623.172485,0,0,5816,727.000
1764837623.1765275,0,0,5312,664.000
1764837623.180487,1,1,1354,169.250
1764837623.184486,0,0,-1287,-160.875
1764837623.1884902,0,0,-858,-107.250
1764837623.1924827,0,0,3687,460.875
1764837623.1965156,0,0,3894,486.750
1764837623.2005277,1,1,919,114.875
1764837623.2044864,0,0,-1310,-163.750
1764837623.20849,0,0,-890,-111.250
1764837623.2124836,0,0,3754,469.250
1764837623.216508,0,0,4159,519.875
1764837623.220486,1,1,1131,141.375
1764837623.2244854,0,0,-1276,-159.500
1764837623.2284877,0,0,-794,-99.250
1764837623.238071,0,0,4535,566.875
1764837623.2404976,1,1,1262,157.750
1764837623.2444937,0,0,-1337,-167.125
1764837623.2484803,0,0,-820,-102.500
1764837623.2524676,0,0,4280,535.000
1764837623.2564695,0,0,4796,599.500
1764837623.2604883,1,1,1445,180.625
1764837623.2644844,0,0,-1258,-157.250
1764837623.2684884,0,0,-1160,-145.000
1764837623.2724807,0,0,2830,353.750
1764837623.2765074,0,0,3866,483.250
1764837623.2804987,1,1,1205,150.625
1764837623.2844872,0,0,-1199,-149.875
1764837623.2884896,0,0,-903,-112.875
1764837623.2924864,0,0,4599,574.875
1764837623.2965238,0,0,5369,671.125
1764837623.3005261,1,1,1811,226.375
1764837623.3044846,0,0,-1183,-147.875
1764837623.308487,0,0,-1308,-163.500
1764837623.312488,0,0,1994,249.250
1764837623.316522,0,0,3549,443.625
1764837623.3204877,1,1,1295,161.875
1764837623.3244832,0,0,-961,-120.125
1764837623.3284824,0,0,-1321,-165.125
1764837623.3324978,0,0,3359,419.875
1764837623.336519,0,0,4610,576.250
1764837623.3404667,1,1,1650,206.250
1764837623.3444664,0,0,-1026,-128.250
1764837623.3484826,0,0,-1364,-170.500
1764837623.3524864,0,0,2817,352.125
1764837623.356526,0,0,4251,531.375
1764837623.3604727,1,1,1534,191.750
1764837623.364467,0,0,-992,-124.000
1764837623.3684807,0,0,-1385,-173.125
1764837623.3724833,0,0,3064,383.000
1764837623.3765113,0,0,4638,579.750
1764837623.380484,1,1,1767,220.875
1764837623.3844838,0,0,-939,-117.375
1764837623.3884897,0,0,-1417,-177.125
1764837623.3924842,0,0,2776,347.000
1764837623.3965175,0,0,4730,591.250
1764837623.4004853,1,1,1990,248.750
1764837623.404522,0,0,-806,-100.750
1764837623.4084754,0,0,-1434,-179.250
1764837623.4124665,0,0,2080,260.000
1764837623.416465,0,0,4395,549.375
1764837623.4204865,1,1,2020,252.500
1764837623.4244814,0,0,-599,-74.875
1764837623.4284828,0,0,-1584,-198.000
1764837623.4324818,0,0,2235,279.375
1764837623.4366236,0,0,4553,569.125
1764837623.4404867,1,1,2086,260.750
1764837623.4444668,0,0,-597,-74.625
1764837623.4484804,0,0,-1572,-196.500
1764837623.452484,0,0,2253,281.625
1764837623.4565072,0,0,4727,590.875
1764837623.4604733,0,0,2240,280.000
1764837623.4644723,0,0,-527,-65.875
1764837623.468483,0,0,-1664,-208.000
1764837623.4724824,0,0,2963,370.375
1764837623.4765124,0,0,5618,702.250
1764837623.480487,0,0,2756,344.500
1764837623.4844851,0,0,-452,-56.500
1764837623.4884896,0,0,-1591,-198.875
1764837623.492482,0,0,1810,226.250
1764837623.4965227,0,0,4689,586.125
1764837623.500486,0,0,2409,301.125
1764837623.504523,0,0,-401,-50.125
1764837623.5084884,0,0,-1695,-211.875
1764837623.51248,0,0,2223,277.875
1764837623.5165076,0,0,5237,654.625
1764837623.5204895,0,0,2742,342.750
1764837623.5244827,0,1,-351,-43.875
1764837623.528489,0,0,-1466,-183.250
1764837623.532493,0,0,1055,131.875
1764837623.5365164,0,0,4334,541.750
1764837623.540467,0,0,2481,310.125
1764837623.5444663,1,1,-202,-25.250
1764837623.548476,0,0,-1693,-211.625
1764837623.5524812,0,0,1554,194.250
1764837623.5565166,0,0,4853,606.625
1764837623.5604675,0,0,2729,341.125
1764837623.5644674,1,1,-201,-25.125
1764837623.568466,0,0,-1619,-202.375
1764837623.572481,0,0,1197,149.625
1764837623.5765076,0,0,4707,588.375
1764837623.5804715,0,0,2783,347.875
1764837623.5844636,1,1,-113,-14.125
1764837623.5884674,0,0,-1627,-203.375
1764837623.5924861,0,0,1307,163.375
1764837623.5965166,0,0,4957,619.625
1764837623.6004841,0,0,2984,373.000
1764837623.6044817,1,1,-57,-7.125
1764837623.6084902,0,0,-1606,-200.750
1764837623.6124825,0,0,1110,138.750
1764837623.6165152,0,0,4934,616.750
1764837623.620469,0,0,3073,384.125
1764837623.6244624,1,1,6,0.750
1764837623.6284726,0,0,-1504,-188.000
1764837623.632481,0,0,814,101.750
1764837623.6366014,0,0,4821,602.625
1764837623.6404855,0,0,3144,393.000
1764837623.6444633,1,1,97,12.125
1764837623.6484778,0,0,-1419,-177.375
1764837623.6524827,0,0,294,36.750
1764837623.6565075,0,0,4279,534.875
1764837623.6604655,0,0,2908,363.500
1764837623.6644602,1,1,88,11.000
1764837623.6684852,0,0,-1641,-205.125
1764837623.6724834,0,0,1196,149.500
1764837623.6765108,0,0,5650,706.250
1764837623.680481,0,0,3830,478.750
1764837623.6844778,1,1,324,40.500
1764837623.6884875,0,0,-1536,-192.000
1764837623.6924818,0,0,946,118.250
1764837623.6965125,0,0,5584,698.000
1764837623.7004778,0,0,3911,488.875
1764837623.7044783,1,1,389,48.625
1764837623.708524,0,0,-1338,-167.250
1764837623.7124798,0,0,-52,-6.500
1764837623.7164762,0,0,4293,536.625
1764837623.7204797,0,0,3190,398.750
1764837623.7244818,1,1,245,30.625
1764837623.7284844,0,0,-1301,-162.625
1764837623.7324805,0,0,-238,-29.750
1764837623.7365098,0,0,4266,533.250
1764837623.740485,0,0,3382,422.750
1764837623.744493,1,1,423,52.875
1764837623.7484913,0,0,-1430,-178.750
1764837623.7524788,0,0,322,40.250
1764837623.7564754,0,0,5273,659.125
1764837623.760483,0,0,4083,510.375
1764837623.7644806,1,1,605,75.625
1764837623.7684727,0,0,-1373,-171.625
1764837623.7724595,0,0,61,7.625
1764837623.7764623,0,0,5168,646.000
1764837623.7804844,0,0,4199,524.875
1764837623.7844825,1,1,722,90.250
1764837623.788487,0,0,-1312,-164.000
1764837623.7924767,0,0,-351,-43.875
1764837623.7965124,0,0,4465,558.125
1764837623.800481,0,0,3840,480.000
1764837623.804479,1,1,656,82.000
1764837623.8085752,0,0,-1334,-166.750
1764837623.812853,0,0,-617,-77.125
1764837623.8165965,0,0,3930,491.250
1764837623.8204882,0,0,3565,445.625
1764837623.824481,1,1,614,76.750
1764837623.8284864,0,0,-1419,-177.375
1764837623.8324783,0,0,-96,-12.000
1764837623.836584,0,0,5321,665.125
1764837623.840502,0,0,4632,579.000
1764837623.8444796,1,1,969,121.125
1764837623.8484828,0,0,-1386,-173.250
1764837623.8524778,0,0,-492,-61.500
1764837623.8565068,0,0,4565,570.625
1764837623.860483,0,0,4293,536.625
1764837623.8644814,1,1,944,118.000
1764837623.8684719,0,0,-1308,-163.500
1764837623.8724604,0,0,-588,-73.500
1764837623.8764634,0,0,4482,560.250
1764837623.88049,0,0,4427,553.375
1764837623.8844762,1,1,1078,134.750
1764837623.8884814,0,0,-1337,-167.125
1764837623.8924758,0,0,-686,-85.750
1764837623.8964765,0,0,4286,535.750
1764837623.9004817,0,0,4351,543.875
1764837623.9044774,1,1,1065,133.125
1764837623.9084787,0,0,-1270,-158.750
1764837623.9125195,0,0,-922,-115.250
1764837623.9165058,0,0,3650,456.250
1764837623.9204683,0,0,4099,512.375
1764837623.9244573,1,1,1101,137.625
1764837623.9284685,0,0,-1295,-161.875
1764837623.9324853,0,0,-803,-100.375
1764837623.9365234,0,0,4229,528.625
1764837623.9404607,0,0,4646,580.750
1764837623.944459,1,1,1337,167.125
1764837623.9484684,0,0,-1327,-165.875
1764837623.95248,0,0,-875,-109.375
1764837623.9564743,0,0,4091,511.375
1764837623.960462,0,0,4699,587.375
1764837623.9644794,1,1,1417,177.125
1764837623.9684865,0,0,-1323,-165.375
1764837623.9724798,0,0,-823,-102.875
1764837623.9764764,0,0,4476,559.500
1764837623.980477,0,0,5099,637.375
1764837623.9844887,1,1,1587,198.375
1764837623.9884849,0,0,-1298,-162.250
1764837623.9924765,0,0,-1054,-131.750
1764837623.9965105,0,0,3504,438.000
1764837624.0004802,0,0,4486,560.750
1764837624.0044763,1,1,1419,177.375
1764837624.0084832,0,0,-1266,-158.250
1764837624.0125136,0,0,-1103,-137.875
1764837624.0164735,0,0,3381,422.625
1764837624.0204728,0,0,4570,571.250
1764837624.024474,1,1,1554,194.250
1764837624.0284753,0,0,-1175,-146.875
1764837624.0324757,0,0,-1222,-152.750
1764837624.0365899,0,0,2657,332.125
1764837624.040478,0,0,4139,517.375
1764837624.0444598,1,1,1454,181.750
1764837624.0484715,0,0,-1075,-134.375
1764837624.0524747,0,0,-1231,-153.875
1764837624.056475,0,0,4019,502.375
1764837624.0604577,0,0,5466,683.250
1764837624.0644567,1,1,2083,260.375
1764837624.068469,0,0,-1028,-128.500
1764837624.0724738,0,0,-1281,-160.125
1764837624.076472,0,0,3267,408.375
1764837624.0804753,0,0,5010,626.250
1764837624.0844731,0,0,1973,246.625
1764837624.0884762,0,0,-964,-120.500
1764837624.092472,0,0,-1416,-177.000
1764837624.0964694,0,0,2727,340.875
1764837624.1004765,0,0,4700,587.500
1764837624.1044738,0,0,1920,240.000
1764837624.108476,0,0,-888,-111.000
1764837624.1124692,0,0,-1534,-191.750
1764837624.1165402,0,0,2248,281.000
1764837624.1204596,0,0,4282,535.250
1764837624.1244533,0,0,1738,217.250
1764837624.1284647,0,0,-878,-109.750
1764837624.1324701,0,0,-1538,-192.250
1764837624.1364703,0,0,3346,418.250
1764837624.1404712,0,0,5584,698.000
1764837624.1444697,0,0,2469,308.625
1764837624.1484737,0,0,-760,-95.000
1764837624.152477,0,0,-1466,-183.250
1764837624.1565044,0,0,2823,352.875
1764837624.1604588,0,0,5379,672.375
1764837624.1644542,0,0,2513,314.125
1764837624.1684668,1,1,-648,-81.000
1764837624.17247,0,0,-1561,-195.125
1764837624.1764677,0,0,2365,295.625
1764837624.1804552,0,0,5033,629.125
1764837624.1844525,0,0,2389,298.625
1764837624.1884668,1,1,-628,-78.500
1764837624.192468,0,0,-1595,-199.375
1764837624.1964731,0,0,2292,286.500
1764837624.2004728,0,0,5193,649.125
1764837624.2044694,0,0,2586,323.250
1764837624.2084737,1,1,-528,-66.000
1764837624.2124684,0,0,-1541,-192.625
1764837624.2164714,0,0,1443,180.375
1764837624.220474,0,0,4527,565.875
1764837624.2244694,0,0,2379,297.375
1764837624.228471,1,1,-446,-55.750
1764837624.232469,0,0,-1625,-203.125
1764837624.242069,0,0,4591,573.875
1764837624.24448,0,0,2471,308.875
1764837624.2484848,1,1,-391,-48.875
1764837624.252456,0,0,-1658,-207.250
1764837624.2564528,0,0,1989,248.625
1764837624.2605221,0,0,5433,679.125
1764837624.2644665,0,0,3015,376.875
1764837624.2684727,1,1,-264,-33.000
1764837624.2724545,0,0,-1605,-200.625
1764837624.276452,0,0,1005,125.625
1764837624.2805133,0,0,4396,549.500
1764837624.2844715,0,0,2489,311.125
1764837624.2884715,1,1,-332,-41.500
1764837624.2924697,0,0,-1612,-201.500
1764837624.2964683,0,0,1358,169.750
1764837624.3004704,0,0,5084,635.500
1764837624.3044648,0,0,3019,377.375
1764837624.3084695,1,1,-154,-19.250
1764837624.3124712,0,0,-1610,-201.250
1764837624.3164694,0,0,1345,168.125
1764837624.320472,0,0,5385,673.125
1764837624.3244662,0,0,3359,419.875
1764837624.3284695,1,1,7,0.875
1764837624.3324702,0,0,-1579,-197.375
1764837624.3364677,0,0,1121,140.125
1764837624.3404667,0,0,5254,656.750
1764837624.3444653,0,0,3355,419.375
1764837624.3484719,1,1,28,3.500
1764837624.3524685,0,0,-1589,-198.625
1764837624.3564684,0,0,1364,170.500
1764837624.360465,0,0,5835,729.375
1764837624.364465,0,0,3842,480.250
1764837624.3684592,1,1,198,24.750
1764837624.3724523,0,0,-1461,-182.625
1764837624.3764653,0,0,650,81.250
1764837624.3804677,0,0,5081,635.125
1764837624.3844664,0,0,3487,435.875
1764837624.3884742,1,1,157,19.625
1764837624.392469,0,0,-1500,-187.500
1764837624.396466,0,0,714,89.250
1764837624.4004667,0,0,5306,663.250
1764837624.4044652,0,0,3701,462.625
1764837624.408472,1,1,229,28.625
1764837624.4124658,0,0,-1392,-174.000
1764837624.4164643,0,0,214,26.750
1764837624.4205022,0,0,4740,592.500
1764837624.4244652,0,0,3435,429.375
1764837624.4284618,1,1,197,24.625
1764837624.4324515,0,0,-1309,-163.625
1764837624.4364471,0,0,-206,-25.750
1764837624.4405468,0,0,4375,546.875
1764837624.4444828,0,0,3441,430.125
1764837624.448469,1,1,346,43.250
1764837624.452454,0,0,-1400,-175.000
1764837624.4564466,0,0,268,33.500
1764837624.460468,0,0,5369,671.125
1764837624.4644694,0,0,4190,523.750
1764837624.4684632,1,1,585,73.125
1764837624.4724498,0,0,-1387,-173.375
1764837624.4764464,0,0,174,21.750
1764837624.4804728,0,0,5412,676.500
1764837624.4844713,0,0,4339,542.375
1764837624.4884748,1,1,665,83.125
1764837624.4924672,0,0,-1387,-173.375
1764837624.496465,0,0,-371,-46.375
1764837624.5004673,0,0,4414,551.750
1764837624.50447,0,0,3774,471.750
1764837624.5084753,1,1,549,68.625
1764837624.512465,0,0,-1367,-170.875
1764837624.5165122,0,0,-134,-16.750
1764837624.5205216,0,0,5159,644.875
1764837624.5244696,0,0,4447,555.875
1764837624.528469,1,1,819,102.375
1764837624.5324633,0,0,-1277,-159.625
1764837624.5364642,0,0,-848,-106.000
1764837624.5404515,0,0,3548,443.500
1764837624.544451,0,0,3612,451.500
1764837624.548464,1,1,757,94.625
1764837624.5524604,0,0,-1287,-160.875
1764837624.5564601,0,0,-589,-73.625
1764837624.560469,0,0,4328,541.000
1764837624.564468,0,0,4136,517.000
1764837624.568467,1,1,880,110.000
1764837624.5724626,0,0,-1356,-169.500
1764837624.5764632,0,0,-425,-53.125
1764837624.580464,0,0,4974,621.750
1764837624.5844493,0,0,4779,597.375
1764837624.588448,1,1,1162,145.250
1764837624.5924609,0,0,-1381,-172.625
1764837624.5964637,0,0,-416,-52.000
1764837624.6004674,0,0,5206,650.750
1764837624.6044667,0,0,5149,643.625
1764837624.6084669,1,1,1367,170.875
1764837624.6124587,0,0,-1336,-167.000
1764837624.6164622,0,0,-975,-121.875
1764837624.620452,0,0,3439,429.875
1764837624.6244874,0,0,3916,489.500
1764837624.628453,1,1,974,121.750
1764837624.6324618,0,0,-1350,-168.750
1764837624.636466,0,0,-906,-113.250
1764837624.64055,0,0,3895,486.875
1764837624.644477,0,0,4480,560.000
1764837624.6484582,1,1,1292,161.500
1764837624.6524463,0,0,-1323,-165.375
1764837624.6564474,0,0,-904,-113.000
1764837624.6604657,0,0,4021,502.625
1764837624.6644619,0,0,4713,589.125
1764837624.6684542,1,1,1437,179.625
1764837624.6724489,0,0,-1301,-162.625
1764837624.6764464,0,0,-947,-118.375
1764837624.680473,0,0,3996,499.500
1764837624.6844652,0,0,4871,608.875
1764837624.6884627,1,1,1574,196.750
1764837624.6924756,0,0,-1265,-158.125
1764837624.6964653,0,0,-1078,-134.750
1764837624.7004528,0,0,3442,430.250
1764837624.7044454,0,0,4602,575.250
1764837624.7084556,1,1,1561,195.125
1764837624.7124636,0,0,-1190,-148.750
1764837624.7164652,0,0,-1059,-132.375
1764837624.7204685,0,0,3734,466.750
1764837624.7244778,0,0,4979,622.375
1764837624.7284648,1,1,1767,220.875
1764837624.732463,0,0,-1144,-143.000
1764837624.736463,0,0,-1095,-136.875
1764837624.7404642,0,0,3793,474.125
1764837624.744462,0,0,5206,650.750
1764837624.7484653,1,1,1935,241.875
1764837624.7524636,0,0,-1083,-135.375
1764837624.7564638,0,0,-1191,-148.875
1764837624.760464,0,0,3609,451.125
1764837624.7644608,0,0,5232,654.000
1764837624.7684665,1,1,2027,253.375
1764837624.7724643,0,0,-1030,-128.750
1764837624.776463,0,0,-1339,-167.375
1764837624.7804692,0,0,2679,334.875
1764837624.784471,0,0,4641,580.125
1764837624.7884557,0,0,1902,237.750
1764837624.7924497,0,0,-885,-110.625
1764837624.7964492,0,0,-1408,-176.000
1764837624.800463,0,0,3132,391.500
1764837624.8044603,0,0,5132,641.500
1764837624.8085663,0,0,2147,268.375
1764837624.8128157,0,0,-834,-104.250
1764837624.8165786,0,0,-1431,-178.875
1764837624.8204765,0,0,4784,598.000
1764837624.8244586,0,0,6645,830.625
1764837624.8284662,0,0,3016,377.000
1764837624.8324583,0,0,-679,-84.875
1764837624.8364553,0,0,-1482,-185.250
1764837624.8405402,0,0,2424,303.000
1764837624.8444786,0,0,4818,602.250
1764837624.848465,0,0,2125,265.625
1764837624.8524714,1,1,-798,-99.750
1764837624.8564603,0,0,-1546,-193.250
1764837624.8604674,0,0,3337,417.125
1764837624.8644605,0,0,5855,731.875
1764837624.8684564,0,0,2683,335.375
1764837624.8724477,1,1,-736,-92.000
1764837624.8764436,0,0,-1550,-193.750
1764837624.8804693,0,0,2479,309.875
1764837624.8844635,0,0,5205,650.625
1764837624.888469,0,0,2457,307.125
1764837624.8924606,1,1,-693,-86.625
1764837624.8964612,0,0,-1580,-197.500
1764837624.9004607,0,0,2322,290.250
1764837624.90446,0,0,5339,667.375
1764837624.9084654,0,0,2680,335.000
1764837624.9124613,1,1,-557,-69.625
1764837624.916464,0,0,-1670,-208.750
1764837624.9204814,0,0,2163,270.375
1764837624.9244626,0,0,5231,653.875
1764837624.928495,0,0,2643,330.375
1764837624.932444,1,1,-566,-70.750
1764837624.9364436,0,0,-1704,-213.000
1764837624.9404585,0,0,2206,275.750
1764837624.9444585,0,0,5467,683.375
1764837624.9484556,0,0,2861,357.625
1764837624.9524434,1,1,-483,-60.375
1764837624.9564433,0,0,-1683,-210.375
1764837624.9604645,0,0,2279,284.875
1764837624.9644663,0,0,5812,726.500
1764837624.9684656,0,0,3170,396.250
1764837624.9724557,1,1,-371,-46.375
1764837624.976457,0,0,-1599,-199.875
1764837624.9804585,0,0,1245,155.625
1764837624.984461,0,0,4785,598.125
1764837624.9884639,0,0,2687,335.875
1764837624.9924567,1,1,-407,-50.875
1764837624.9964588,0,0,-1447,-180.875
1764837625.0004623,0,0,773,96.625
1764837625.004459,0,0,4701,587.625
1764837625.0084586,0,0,2940,367.500
1764837625.0124564,1,1,-131,-16.375
1764837625.0164597,0,0,-1426,-178.250
1764837625.0204384,0,0,585,73.125
1764837625.0244393,0,0,4504,563.000
1764837625.02848,0,0,2864,358.000
1764837625.032456,1,1,-120,-15.000
1764837625.0364535,0,0,-1531,-191.375
1764837625.0405457,0,0,601,75.125
1764837625.04447,0,0,4556,569.500
1764837625.04845,0,0,2919,364.875
1764837625.0524387,1,1,-104,-13.000
1764837625.0564396,0,0,-1586,-198.250
1764837625.0604577,0,0,1123,140.375
1764837625.0644517,0,0,5495,686.875
1764837625.0684435,0,0,3616,452.000
1764837625.0724356,1,1,115,14.375
1764837625.0764396,0,0,-1470,-183.750
1764837625.0804613,0,0,796,99.500
1764837625.0844584,0,0,5406,675.750
1764837625.0884585,0,0,3746,468.250
1764837625.0924535,1,1,244,30.500
1764837625.0964568,0,0,-1439,-179.875
1764837625.1004596,0,0,488,61.000
1764837625.1044526,0,0,4965,620.625
1764837625.1084554,0,0,3470,433.750
1764837625.1124556,1,1,147,18.375
1764837625.1164558,0,0,-1419,-177.375
1764837625.1204453,0,0,365,45.625
1764837625.1244352,0,0,5100,637.500
1764837625.1284466,0,0,3743,467.875
1764837625.1324728,1,1,311,38.875
1764837625.136456,0,0,-1480,-185.000
1764837625.1404562,0,0,685,85.625
1764837625.1444554,0,0,5857,732.125
1764837625.1484563,0,0,4388,548.500
1764837625.1524527,1,1,550,68.750
1764837625.1564536,0,0,-1346,-168.250
1764837625.1604586,0,0,-146,-18.250
1764837625.164454,0,0,4752,594.000
1764837625.1684568,0,0,3874,484.250
1764837625.1724536,1,1,524,65.500
1764837625.176453,0,0,-1326,-165.750
1764837625.1804698,0,0,-530,-66.250
1764837625.1844616,0,0,4006,500.750
1764837625.188448,0,0,3471,433.875
1764837625.1924357,1,1,463,57.875
1764837625.1964362,0,0,-1417,-177.125
1764837625.2004554,0,0,-173,-21.625
1764837625.204451,0,0,4896,612.000
1764837625.2084405,0,0,4117,514.625
1764837625.2124374,1,1,655,81.875
1764837625.2164366,0,0,-1360,-170.000
1764837625.2204533,0,0,-198,-24.750
1764837625.2244506,0,0,5095,636.875
1764837625.228457,0,0,4469,558.625
1764837625.2325013,1,1,856,107.000
1764837625.2364516,0,0,-1433,-179.125
1764837625.2460637,0,0,5332,666.500
1764837625.2484987,0,0,4752,594.000
1764837625.2524607,1,1,978,122.250
1764837625.2564533,0,0,-1428,-178.500
1764837625.2604346,0,0,-393,-49.125
1764837625.2644358,0,0,4809,601.125
1764837625.2684498,0,0,4399,549.875
1764837625.2724545,1,1,835,104.375
1764837625.2764547,0,0,-1467,-183.375
1764837625.2804399,0,0,-333,-41.625
1764837625.2844331,0,0,5284,660.500
1764837625.2884524,0,0,5052,631.500
1764837625.2924547,1,1,1215,151.875
1764837625.2964513,0,0,-1354,-169.250
1764837625.3004503,0,0,-700,-87.500
1764837625.30445,0,0,4389,548.625
1764837625.3084626,0,0,4590,573.750
1764837625.3124669,1,1,1145,143.125
1764837625.316456,0,0,-1362,-170.250
1764837625.3204374,0,0,-750,-93.750
1764837625.3244352,0,0,4387,548.375
1764837625.3284495,0,0,4756,594.500
1764837625.3324676,1,1,1288,161.000
1764837625.3364542,0,0,-1402,-175.250
1764837625.3404374,0,0,-895,-111.875
1764837625.3444357,0,0,3894,486.750
1764837625.3484473,0,0,4377,547.125
1764837625.3524506,1,1,1128,141.000
1764837625.3564475,0,0,-1375,-171.875
1764837625.3604774,0,0,-839,-104.875
1764837625.36445,0,0,4276,534.500
1764837625.3684425,0,0,4894,611.750
1764837625.3724368,1,1,1428,178.500
1764837625.3764367,0,0,-1370,-171.250
1764837625.38045,0,0,-982,-122.750
1764837625.3844528,0,0,3786,473.250
1764837625.3884568,0,0,4628,578.500
1764837625.3924499,1,1,1371,171.375
1764837625.396447,0,0,-1385,-173.125
1764837625.4004765,0,0,-969,-121.125
1764837625.4044526,0,0,4020,502.500
1764837625.4084566,0,0,5062,632.750
1764837625.412447,1,1,1665,208.125
1764837625.4164488,0,0,-1302,-162.750
1764837625.420449,0,0,-1045,-130.625
1764837625.4244518,0,0,3740,467.500
1764837625.4284601,0,0,4977,622.125
1764837625.4324503,1,1,1690,211.250
1764837625.4365213,0,0,-1252,-156.500
1764837625.440453,0,0,-1172,-146.500
1764837625.4445345,0,0,3075,384.375
1764837625.4484673,0,0,4660,582.500
1764837625.452436,1,1,1694,211.750
1764837625.4564323,0,0,-1120,-140.000
1764837625.4604568,0,0,-1255,-156.875
1764837625.4644532,0,0,3372,421.500
1764837625.4684463,0,0,4964,620.500
1764837625.4724345,1,1,1836,229.500
1764837625.4764295,0,0,-1106,-138.250
1764837625.4804554,0,0,-1249,-156.125
1764837625.4844532,0,0,3739,467.375
1764837625.4884582,0,0,5525,690.625
1764837625.4924507,1,1,2186,273.250
1764837625.4964485,0,0,-1023,-127.875
1764837625.5004818,0,0,-1317,-164.625
1764837625.5044498,0,0,3501,437.625
1764837625.5084567,0,0,5487,685.875
1764837625.5124488,1,1,2239,279.875
1764837625.5164485,0,0,-973,-121.625
1764837625.5204833,0,0,-1404,-175.500
1764837625.524449,0,0,3007,375.875
1764837625.5284536,0,0,5224,653.000
1764837625.5324485,1,1,2215,276.875
1764837625.5365303,0,0,-897,-112.125
1764837625.5404508,0,0,-1480,-185.000
1764837625.5444486,0,0,2989,373.625
1764837625.5484498,0,0,5347,668.375
1764837625.5524588,0,0,2324,290.500
1764837625.5564508,0,0,-865,-108.125
1764837625.5604532,0,0,-1539,-192.375
1764837625.5644488,0,0,2928,366.000
1764837625.5684514,0,0,5583,697.875
1764837625.5724473,0,0,2591,323.875
1764837625.5764496,0,0,-743,-92.875
1764837625.5804513,0,0,-1542,-192.750
1764837625.5844493,0,0,2458,307.250
1764837625.5884519,0,0,5336,667.000
1764837625.5924501,0,0,2589,323.625
1764837625.596459,1,1,-646,-80.750
1764837625.6004395,0,0,-1620,-202.500
1764837625.6044362,0,0,2889,361.125
1764837625.6084323,0,0,5957,744.625
1764837625.612443,0,0,2981,372.625
1764837625.6164443,0,0,-567,-70.875
1764837625.6204717,0,0,-1574,-196.750
1764837625.6244483,0,0,2298,287.250
1764837625.628442,0,0,5481,685.125
1764837625.632441,0,0,2797,349.625
1764837625.636442,1,1,-561,-70.125
1764837625.6405323,0,0,-1656,-207.000
1764837625.644528,0,0,2566,320.750
1764837625.6484575,0,0,5984,748.000
1764837625.652433,0,0,3164,395.500
1764837625.65643,1,1,-458,-57.250
1764837625.6604347,0,0,-1571,-196.375
1764837625.6644301,0,0,1511,188.875
1764837625.6684232,0,0,5084,635.500
1764837625.6724334,0,0,2828,353.500
1764837625.6764317,1,1,-412,-51.500
1764837625.6804502,0,0,-1701,-212.625
1764837625.6844473,0,0,1863,232.875
1764837625.6884499,0,0,5498,687.250
1764837625.692449,0,0,3057,382.125
1764837625.696446,1,1,-392,-49.000
1764837625.7004845,0,0,-1653,-206.625
1764837625.7044432,0,0,1990,248.750
1764837625.7084432,0,0,6093,761.625
1764837625.712454,0,0,3636,454.500
1764837625.7164567,1,1,-140,-17.500
1764837625.7204363,0,0,-1578,-197.250
1764837625.72443,0,0,1754,219.250
1764837625.728439,0,0,6089,761.125
1764837625.732447,0,0,3784,473.000
1764837625.7364464,1,1,-36,-4.500
1764837625.7404773,0,0,-1553,-194.125
1764837625.7444267,0,0,1133,141.625
1764837625.7484574,0,0,5503,687.875
1764837625.7524462,0,0,3525,440.625
1764837625.756445,1,1,-55,-6.875
1764837625.7604456,0,0,-1494,-186.750
1764837625.764442,0,0,492,61.500
1764837625.7684467,0,0,4669,583.625
1764837625.7724447,0,0,3045,380.625
1764837625.7764466,1,1,-162,-20.250
1764837625.7804766,0,0,-1604,-200.500
1764837625.784442,0,0,1282,160.250
1764837625.788448,0,0,6006,750.750
1764837625.7924428,0,0,4031,503.875
1764837625.7964463,1,1,159,19.875
1764837625.8004832,0,0,-1450,-181.250
1764837625.804443,0,0,671,83.875
1764837625.808447,0,0,5494,686.750
1764837625.8128164,0,0,3879,484.875
1764837625.8166387,1,1,200,25.000
1764837625.8204715,0,0,-1321,-165.125
1764837625.824442,0,0,-187,-23.375
1764837625.8284433,0,0,4474,559.250
1764837625.8324451,0,0,3509,438.625
1764837625.8364427,1,1,310,38.750
1764837625.8405135,0,0,-1361,-170.125
1764837625.84452,0,0,145,18.125
1764837625.8484554,0,0,5126,640.750
1764837625.8524318,0,0,3954,494.250
1764837625.8564303,1,1,426,53.250
1764837625.860445,0,0,-1354,-169.250
1764837625.864442,0,0,-265,-33.125
1764837625.868645,0,0,4531,566.375
1764837625.8724298,0,0,3738,467.250
1764837625.8764255,1,1,475,59.375
1764837625.8804355,0,0,-1337,-167.125
1764837625.8844285,0,0,-153,-19.125
1764837625.8884168,0,0,4998,624.750
1764837625.8924289,0,0,4244,530.500
1764837625.8964236,1,1,736,92.000
1764837625.900429,0,0,-1312,-164.000
1764837625.904428,0,0,-794,-99.250
1764837625.9084153,0,0,3500,437.500
1764837625.9124272,0,0,3346,418.250
1764837625.9164243,1,1,564,70.500
1764837625.920427,0,0,-1270,-158.750
1764837625.9244273,0,0,-926,-115.750
1764837625.9284327,0,0,3172,396.500
1764837625.9324605,0,0,3203,400.375
1764837625.9364417,1,1,588,73.500
1764837625.9404402,0,0,-1296,-162.000
1764837625.9444866,0,0,-775,-96.875
1764837625.948445,0,0,3794,474.250
1764837625.9524431,0,0,3816,477.000
1764837625.95644,1,1,882,110.250
1764837625.9604273,0,0,-1247,-155.875
1764837625.9644518,0,0,-1009,-126.125
1764837625.9684467,0,0,3136,392.000
1764837625.9724405,0,0,3511,438.875
1764837625.9764426,1,1,884,110.500
1764837625.9804425,0,0,-1165,-145.625
1764837625.9844453,0,0,-1054,-131.750
1764837625.9884498,0,0,3085,385.625
1764837625.9924424,0,0,3657,457.125
1764837625.9964428,1,1,1043,130.375
1764837626.000476,0,0,-1188,-148.500
1764837626.0044448,0,0,-1072,-134.000
1764837626.0084484,0,0,3054,381.750
1764837626.0124502,0,0,3642,455.250
1764837626.0164607,1,1,1029,128.625
1764837626.0204382,0,0,-1227,-153.375
1764837626.024428,0,0,-876,-109.500
1764837626.028437,0,0,4020,502.500
1764837626.03244,0,0,4488,561.000
1764837626.0364506,1,1,1364,170.500
1764837626.0404296,0,0,-1212,-151.500
1764837626.044563,0,0,-1050,-131.250
1764837626.048452,0,0,3371,421.375
1764837626.0524232,0,0,4225,528.125
1764837626.0564198,1,1,1384,173.000
1764837626.060444,0,0,-1159,-144.875
1764837626.0644407,0,0,-1152,-144.000
1764837626.0684323,0,0,2873,359.125
1764837626.072421,0,0,3858,482.250
1764837626.0764208,1,1,1243,155.375
1764837626.0804455,0,0,-1121,-140.125
1764837626.0844424,0,0,-1018,-127.250
1764837626.0884476,0,0,3871,483.875
1764837626.0924416,0,0,4907,613.375
1764837626.0964408,1,1,1766,220.750
1764837626.100443,0,0,-1047,-130.875
1764837626.1044393,0,0,-1127,-140.875
1764837626.1084454,0,0,3290,411.250
1764837626.1124375,0,0,4734,591.750
1764837626.1164477,1,1,1856,232.000
1764837626.1204903,0,0,-887,-110.875
1764837626.1244452,0,0,-1239,-154.875
1764837626.1284366,0,0,3216,402.000
1764837626.1324332,0,0,4710,588.750
1764837626.1364348,1,1,1843,230.375
1764837626.1404426,0,0,-889,-111.125
1764837626.1444767,0,0,-1304,-163.000
1764837626.148435,0,0,2944,368.000
1764837626.1524208,0,0,4666,583.250
1764837626.156419,1,1,1906,238.250
1764837626.1604426,0,0,-810,-101.250
1764837626.164442,0,0,-1352,-169.000
1764837626.1684456,0,0,2886,360.750
1764837626.1724393,0,0,4796,599.500
1764837626.1764362,1,1,2047,255.875
1764837626.1804373,0,0,-716,-89.500
1764837626.18444,0,0,-1418,-177.250
1764837626.188441,0,0,2502,312.750
1764837626.192436,0,0,4640,580.000
1764837626.1964376,1,1,2080,260.000
1764837626.2004426,0,0,-655,-81.875
1764837626.2044394,0,0,-1364,-170.500
1764837626.2084377,0,0,1427,178.375
1764837626.2124345,0,0,3964,495.500
1764837626.2164392,1,1,1990,248.750
1764837626.2204444,0,0,-386,-48.250
1764837626.2244375,0,0,-1619,-202.375
1764837626.2284353,0,0,2562,320.250
1764837626.232434,0,0,5045,630.625
1764837626.2364397,1,1,2471,308.875
1764837626.2404394,0,0,-381,-47.625
1764837626.250126,0,0,2243,280.375
1764837626.2524552,0,0,4932,616.500
1764837626.2564418,1,1,2496,312.000
1764837626.26047,0,0,-319,-39.875
1764837626.2644222,0,0,-1585,-198.125
1764837626.2684362,0,0,1616,202.000
1764837626.2724354,0,0,4454,556.750
1764837626.2764497,1,1,2338,292.250
1764837626.280424,0,0,-270,-33.750
1764837626.2844222,0,0,-1618,-202.250
1764837626.2884355,0,0,1593,199.125
1764837626.2924402,0,0,4567,570.875
1764837626.2964408,1,1,2461,307.625
1764837626.3004515,0,0,-213,-26.625
1764837626.304435,0,0,-1583,-197.875
1764837626.3084419,0,0,1668,208.500
1764837626.3124356,0,0,4819,602.375
1764837626.3164377,1,1,2668,333.500
1764837626.3204443,0,0,-145,-18.125
1764837626.3244367,0,0,-1579,-197.375
1764837626.3284397,0,0,1599,199.875
1764837626.332434,0,0,5038,629.750
1764837626.3364384,1,1,2938,367.250
1764837626.3404374,0,0,0,0.000
1764837626.344438,0,0,-1472,-184.000
1764837626.3484797,0,0,1105,138.125
1764837626.3524365,0,0,4722,590.250
1764837626.3564372,1,1,2899,362.375
1764837626.360442,0,0,80,10.000
1764837626.3644347,0,0,-1471,-183.875
1764837626.3684313,0,0,1014,126.750
1764837626.3724208,0,0,4814,601.750
1764837626.3764205,1,1,3055,381.875
1764837626.3804393,0,0,168,21.000
1764837626.3844337,0,0,-1539,-192.375
1764837626.3884413,0,0,1314,164.250
1764837626.3924425,0,0,5338,667.250
1764837626.3964367,0,0,3429,428.625
1764837626.4004383,0,0,263,32.875
1764837626.4044356,0,0,-1388,-173.500
1764837626.4084423,0,0,489,61.125
1764837626.4124393,0,0,4507,563.375
1764837626.4164474,0,0,3065,383.125
1764837626.4204848,0,0,263,32.875
1764837626.4244359,0,0,-1369,-171.125
1764837626.4284282,0,0,533,66.625
1764837626.4324188,0,0,4773,596.625
1764837626.4364202,0,0,3348,418.500
1764837626.4404402,0,0,410,51.250
1764837626.444436,0,0,-1215,-151.875
1764837626.4485514,0,0,-78,-9.750
1764837626.4524333,0,0,4212,526.500
1764837626.4564223,0,0,3173,396.625
1764837626.4604428,0,0,456,57.000
1764837626.464437,0,0,-1290,-161.250
1764837626.468429,0,0,536,67.000
1764837626.4724193,0,0,5149,643.625
1764837626.4764178,0,0,3792,474.000
1764837626.4804387,0,0,604,75.500
1764837626.4844341,0,0,-1171,-146.375
1764837626.48844,0,0,267,33.375
1764837626.492436,0,0,5165,645.625
1764837626.496435,0,0,4008,501.000
1764837626.5004325,1,1,747,93.375
1764837626.5044334,0,0,-1139,-142.375
1764837626.5084372,0,0,-383,-47.875
1764837626.5124362,0,0,4245,530.625
1764837626.5164435,0,0,3614,451.750
1764837626.5204883,1,1,740,92.500
1764837626.524436,0,0,-1081,-135.125
1764837626.5284252,0,0,-116,-14.500
1764837626.5324202,0,0,4975,621.875
1764837626.536418,0,0,4202,525.250
1764837626.5404346,1,1,914,114.250
1764837626.544434,0,0,-1087,-135.875
1764837626.5484278,0,0,-709,-88.625
1764837626.5524542,0,0,3863,482.875
1764837626.5564172,0,0,3757,469.625
1764837626.5604396,1,1,968,121.000
1764837626.564437,0,0,-1045,-130.625
1764837626.568442,0,0,-313,-39.125
1764837626.572437,0,0,4971,621.375
1764837626.5764341,0,0,4583,572.875
1764837626.5804322,1,1,1218,152.250
1764837626.5844355,0,0,-1056,-132.000
1764837626.5884411,0,0,-263,-32.875
1764837626.5924366,0,0,5349,668.625
1764837626.5964339,0,0,5068,633.500
1764837626.6004345,1,1,1461,182.625
1764837626.6044323,0,0,-982,-122.750
1764837626.6084414,0,0,-253,-31.625
1764837626.6124346,0,0,5526,690.750
1764837626.6164367,0,0,5321,665.125
1764837626.6204216,1,1,1565,195.625
1764837626.6244142,0,0,-1040,-130.000
1764837626.6284263,0,0,-181,-22.625
1764837626.6324358,0,0,5935,741.875
1764837626.6364334,0,0,5822,727.750
1764837626.640437,1,1,1803,225.375
1764837626.6444337,0,0,-980,-122.500
1764837626.648524,0,0,-373,-46.625
1764837626.6524658,0,0,5573,696.625
1764837626.6564348,0,0,5677,709.625
1764837626.6604166,1,1,1759,219.875
1764837626.6644158,0,0,-1006,-125.750
1764837626.66843,0,0,-328,-41.000
1764837626.672435,0,0,5884,735.500
1764837626.6764314,0,0,6117,764.625
1764837626.6804173,1,1,2015,251.875
1764837626.684414,0,0,-1024,-128.000
1764837626.6884377,0,0,-354,-44.250
1764837626.6924353,0,0,5913,739.125
1764837626.6964288,0,0,6268,783.500
1764837626.7004285,1,1,2119,264.875
1764837626.7044327,0,0,-999,-124.875
1764837626.7084386,0,0,-404,-50.500
1764837626.7124355,0,0,5910,738.750
1764837626.7164326,0,0,6502,812.750
1764837626.7204363,1,1,2366,295.750
1764837626.7244306,0,0,-938,-117.250
1764837626.7284338,0,0,-471,-58.875
1764837626.7324302,0,0,5818,727.250
1764837626.736432,0,0,6581,822.625
1764837626.7404315,1,1,2461,307.625
1764837626.7444303,0,0,-902,-112.750
1764837626.7484345,0,0,-482,-60.250
1764837626.752466,0,0,5837,729.625
1764837626.7564268,0,0,6808,851.000
1764837626.7604294,1,1,2730,341.250
1764837626.7644331,0,0,-831,-103.875
1764837626.7684383,0,0,-696,-87.000
1764837626.7724304,0,0,5384,673.000
1764837626.7764246,0,0,6523,815.375
1764837626.7804127,1,1,2469,308.625
1764837626.7844143,0,0,-951,-118.875
1764837626.78843,0,0,-887,-110.875
1764837626.7924297,0,0,4777,597.125
1764837626.7964249,0,0,6178,772.250
1764837626.8004296,1,1,2267,283.375
1764837626.8044317,0,0,-1077,-134.625
1764837626.8084764,0,0,-812,-101.500
1764837626.8127995,0,0,5169,646.125
1764837626.816573,0,0,6736,842.000
1764837626.820442,1,1,2775,346.875
1764837626.8244321,0,0,-852,-106.500
1764837626.8284585,0,0,-802,-100.250
1764837626.832443,0,0,5255,656.875
1764837626.8364289,0,0,7013,876.625
1764837626.8404455,1,1,3146,393.250
1764837626.8444295,0,0,-638,-79.750
1764837626.8485124,0,0,-991,-123.875
1764837626.8524368,0,0,4837,604.625
1764837626.8564596,0,0,6838,854.750
1764837626.860431,1,1,3020,377.500
1764837626.864433,0,0,-717,-89.625
1764837626.868424,0,0,-1087,-135.875
1764837626.872437,0,0,4548,568.500
1764837626.8764286,0,0,6785,848.125
1764837626.8804405,1,1,3034,379.250
1764837626.8844461,0,0,-702,-87.750
1764837626.8884344,0,0,-1222,-152.750
1764837626.892427,0,0,4074,509.250
1764837626.896425,0,0,6575,821.875
1764837626.9004326,1,1,2904,363.000
1764837626.9044306,0,0,-763,-95.375
1764837626.9084332,0,0,-1251,-156.375
1764837626.91243,0,0,4450,556.250
1764837626.9164293,0,0,6982,872.750
1764837626.920435,1,1,3355,419.375
1764837626.9244313,0,0,-505,-63.125
1764837626.9284294,0,0,-1317,-164.625
1764837626.9324377,0,0,4364,545.500
1764837626.9364333,0,0,7081,885.125
1764837626.9404178,1,1,3575,446.875
1764837626.9444113,0,0,-370,-46.250
1764837626.948424,0,0,-1357,-169.625
1764837626.9524283,0,0,4167,520.875
1764837626.956464,0,0,7073,884.125
1764837626.9604166,1,1,3667,458.375
1764837626.9644144,0,0,-325,-40.625
1764837626.96844,0,0,-1441,-180.125
1764837626.97243,0,0,4009,501.125
1764837626.9764276,0,0,7083,885.375
1764837626.9804153,1,1,3782,472.750
1764837626.9844115,0,0,-259,-32.375
1764837626.9884198,0,0,-1459,-182.375
1764837626.9924278,0,0,3733,466.625
1764837626.9964244,0,0,7059,882.375
1764837627.0004292,1,1,3906,488.250
1764837627.0044298,0,0,-178,-22.250
1764837627.0084345,0,0,-1515,-189.375
1764837627.012425,0,0,3713,464.125
1764837627.0164208,0,0,7130,891.250
1764837627.0204318,1,1,4109,513.625
1764837627.0244255,0,0,-45,-5.625
1764837627.0284283,0,0,-1553,-194.125
1764837627.0324233,0,0,3171,396.375
1764837627.0364232,0,0,6867,858.375
1764837627.0404334,1,1,3874,484.250
1764837627.0444252,0,0,-251,-31.375
1764837627.048507,0,0,-1493,-186.625
1764837627.0524368,0,0,2780,347.500
1764837627.0564258,0,0,6740,842.500
1764837627.0604115,1,1,3854,481.750
1764837627.0644236,0,0,-272,-34.000
1764837627.068419,0,0,-1487,-185.875
1764837627.072426,0,0,2582,322.750
1764837627.0764205,0,0,6755,844.375
1764837627.0804214,1,1,4026,503.250
1764837627.0844111,0,0,-150,-18.750
1764837627.0884316,0,0,-1521,-190.125
1764837627.0924256,0,0,2817,352.125
1764837627.096424,0,0,7037,879.625
1764837627.1004272,1,1,4574,571.750
1764837627.1044235,0,0,283,35.375
1764837627.1084268,0,0,-1563,-195.375
1764837627.112422,0,0,2589,323.625
1764837627.1164253,0,0,6998,874.750
1764837627.1204128,1,1,4717,589.625
1764837627.1244109,0,0,393,49.125
1764837627.12842,0,0,-1520,-190.000
1764837627.1324205,0,0,2382,297.750
1764837627.1364253,0,0,6922,865.250
1764837627.1404333,1,1,4735,591.875
1764837627.144436,0,0,386,48.250
1764837627.1484177,0,0,-1536,-192.000
1764837627.152407,0,0,2139,267.375
1764837627.156406,0,0,6860,857.500
1764837627.160443,1,1,4843,605.375
1764837627.164423,0,0,476,59.500
1764837627.168414,0,0,-1508,-188.500
1764837627.1724064,0,0,2028,253.500
1764837627.176407,0,0,6869,858.625
1764837627.1804285,1,1,5064,633.000
1764837627.1844237,0,0,669,83.625
1764837627.1884286,0,0,-1384,-173.000
1764837627.192419,0,0,1264,158.000
1764837627.1964214,0,0,6464,808.000
1764837627.200426,1,1,4666,583.250
1764837627.2044249,0,0,318,39.750
1764837627.2084236,0,0,-1313,-164.125
1764837627.2124174,0,0,452,56.500
1764837627.2164202,0,0,5941,742.625
1764837627.2204218,1,1,4426,553.250
1764837627.2244208,0,0,186,23.250
1764837627.2284222,0,0,-1417,-177.125
1764837627.2324219,0,0,1335,166.875
1764837627.2364252,0,0,6751,843.875
1764837627.240424,1,1,5491,686.375
1764837627.2444205,0,0,1083,135.375
1764837627.2540143,0,0,6548,818.500
1764837627.256434,0,0,6548,818.500
1764837627.2604544,1,1,5399,674.875
1764837627.2644076,0,0,991,123.875
1764837627.2684193,0,0,-1298,-162.250
1764837627.2724197,0,0,667,83.375
1764837627.276421,0,0,6385,798.125
1764837627.2804167,1,1,5404,675.500
1764837627.2844083,0,0,1003,125.375
1764837627.2884223,0,0,-1306,-163.250
1764837627.2924244,0,0,477,59.625
1764837627.2964232,0,0,6243,780.375
1764837627.3004236,1,1,5340,667.500
1764837627.3044221,0,0,935,116.875
1764837627.3084292,0,0,-1377,-172.125
1764837627.312422,0,0,419,52.375
1764837627.3164237,0,0,6247,780.875
1764837627.3204281,1,1,5583,697.875
1764837627.3244221,0,0,1193,149.125
1764837627.3284218,0,0,-1308,-163.500
1764837627.3324165,0,0,209,26.125
1764837627.336421,0,0,6088,761.000
1764837627.3404315,1,1,5601,700.125
1764837627.3444312,0,0,1229,153.625
1764837627.348418,0,0,-1360,-170.000
1764837627.3524027,0,0,157,19.625
1764837627.356403,0,0,6081,760.125
1764837627.3604362,0,1,5836,729.500
1764837627.364421,0,0,1495,186.875
1764837627.368413,0,0,-1308,-163.500
1764837627.3724027,0,0,-90,-11.250
1764837627.3764043,0,0,5855,731.875
1764837627.3804274,0,0,5814,726.750
1764837627.3844173,0,0,1512,189.000
1764837627.3884218,0,0,-175,-21.875
1764837627.3924193,0,0,5803,725.375
1764837627.3964245,0,0,6032,754.000
1764837627.4004228,0,0,1791,223.875
1764837627.404424,1,0,-1281,-160.125
1764837627.4084237,0,0,-319,-39.875
1764837627.412416,0,0,5643,705.375
1764837627.4164193,0,0,6011,751.375
1764837627.4204211,0,0,1785,223.125
1764837627.4244175,0,0,-1285,-160.625
1764837627.4284208,0,0,-458,-57.250
1764837627.4324195,0,0,5486,685.750
1764837627.4364219,0,0,6101,762.625
1764837627.440423,0,0,1932,241.500
1764837627.4444168,1,0,-1214,-151.750
1764837627.4484239,0,0,-757,-94.625
1764837627.4525113,0,0,4932,616.500
1764837627.4564354,0,0,5747,718.375
1764837627.4604053,0,0,1621,202.625
1764837627.4644406,1,1,-1395,-174.375
1764837627.468422,0,0,-547,-68.375
1764837627.4724221,0,0,5416,677.000
1764837627.4764209,0,0,6384,798.000
1764837627.4804158,0,0,2301,287.625
1764837627.4844048,1,1,-1159,-144.875
1764837627.4884071,0,0,-685,-85.625
1764837627.492405,0,0,5180,647.500
1764837627.4964027,0,0,6302,787.750
1764837627.5004246,0,0,2229,278.625
1764837627.504419,1,1,-1204,-150.500
1764837627.508427,0,0,-888,-111.000
1764837627.512424,0,0,4722,590.250
1764837627.5164225,0,0,6143,767.875
1764837627.5204282,0,0,2134,266.750
1764837627.524416,1,1,-1296,-162.000
1764837627.5284207,0,0,-880,-110.000
1764837627.5324175,0,0,4794,599.250
1764837627.5364192,0,0,6428,803.500
1764837627.540422,0,0,2500,312.500
1764837627.5444167,1,1,-1164,-145.500
1764837627.5484195,0,0,-913,-114.125
1764837627.552427,0,0,4734,591.750
1764837627.5564315,0,0,6571,821.375
1764837627.5604074,0,0,2725,340.625
1764837627.5644174,1,1,-1052,-131.500
1764837627.568418,0,0,-918,-114.750
1764837627.5724225,0,0,4751,593.875
1764837627.5764198,0,0,6765,845.625
1764837627.5804093,0,0,3028,378.500
1764837627.5844038,1,1,-873,-109.125
1764837627.5884159,0,0,-1039,-129.875
1764837627.5924182,0,0,4540,567.500
1764837627.596422,0,0,6778,847.250
1764837627.6004264,0,0,3128,391.000
1764837627.604414,1,1,-799,-99.875
1764837627.6084173,0,0,-1125,-140.625
1764837627.6124191,0,0,4590,573.750
1764837627.6164176,0,0,6935,866.875
1764837627.6204102,0,0,3407,425.875
1764837627.6244006,1,1,-622,-77.750
1764837627.6284132,0,0,-1236,-154.500
1764837627.6324189,0,0,4253,531.625
1764837627.6364174,0,0,6796,849.500
1764837627.6404192,0,0,3289,411.125
1764837627.644402,1,1,-723,-90.375
1764837627.64841,0,0,-1278,-159.750
1764837627.6524956,0,0,4085,510.625
1764837627.656433,0,0,6811,851.375
1764837627.6604,0,0,3404,425.500
1764837627.664399,1,1,-657,-82.125
1764837627.6684175,0,0,-1334,-166.750
1764837627.6724188,0,0,3959,494.875
1764837627.6764195,0,0,6870,858.750
1764837627.6804125,0,0,3606,450.750
1764837627.6844015,1,1,-520,-65.000
1764837627.6884165,0,0,-1392,-174.000
1764837627.6924212,0,0,3698,462.250
1764837627.69642,0,0,6809,851.125
1764837627.7004201,0,0,3623,452.875
1764837627.7044177,1,1,-526,-65.750
1764837627.7084267,0,0,-1441,-180.125
1764837627.7124197,0,0,3724,465.500
1764837627.7164178,0,0,7009,876.125
1764837627.720423,0,0,4129,516.125
1764837627.7244267,1,1,-126,-15.750
1764837627.7284214,0,0,-1513,-189.125
1764837627.7324173,0,0,3446,430.750
1764837627.736419,0,0,6903,862.875
1764837627.7404075,0,0,4064,508.000
1764837627.7443972,1,1,-206,-25.750
1764837627.7483785,0,0,-1517,-189.625
1764837627.7524176,0,0,3108,388.500
1764837627.7564175,0,0,6814,851.750
1764837627.7604222,0,0,4083,510.375
1764837627.7644389,1,1,-212,-26.500
1764837627.768433,0,0,-1569,-196.125
1764837627.7724025,0,0,3348,418.500
1764837627.776399,0,0,7068,883.500
1764837627.7804146,0,0,4725,590.625
1764837627.7844145,1,1,346,43.250
1764837627.7884111,0,0,-1567,-195.875
1764837627.7924,0,0,2938,367.250
1764837627.7963994,0,0,6896,862.000
1764837627.8004193,0,0,4604,575.500
1764837627.8044147,1,1,209,26.125
1764837627.808493,0,0,-1563,-195.375
1764837627.8127854,0,0,2908,363.500
1764837627.816537,0,0,6933,866.625
1764837627.820429,0,0,4865,608.125
1764837627.8244143,1,1,433,54.125
1764837627.8284292,0,0,-1561,-195.125
1764837627.832416,0,0,2623,327.875
1764837627.8364134,0,0,6850,856.250
1764837627.8404167,0,0,4965,620.625
1764837627.844413,1,1,518,64.750
1764837627.848422,0,0,-1560,-195.000
1764837627.8524973,0,0,2304,288.000
1764837627.856432,0,0,6693,836.625
1764837627.8604162,0,0,4794,599.250
1764837627.8644001,1,1,314,39.250
1764837627.8684525,0,0,-1581,-197.625
1764837627.872416,0,0,2271,283.875
1764837627.8764157,0,0,6744,843.000
1764837627.8804178,0,0,5164,645.500
1764837627.8844101,1,1,686,85.750
1764837627.8884203,0,0,-1537,-192.125
1764837627.892416,0,0,2113,264.125
1764837627.8964157,0,0,6705,838.125
1764837627.900421,0,0,5388,673.500
1764837627.9044151,1,1,925,115.625
1764837627.9084163,0,0,-1404,-175.500
1764837627.912417,0,0,1603,200.375
1764837627.9164116,0,0,6452,806.500
1764837627.9204202,0,0,5043,630.375
1764837627.9244134,1,1,532,66.500
1764837627.928416,0,0,-1446,-180.750
1764837627.9324136,0,0,1469,183.625
1764837627.9364135,0,0,6433,804.125
1764837627.9404182,0,0,5248,656.000
1764837627.9444103,1,1,751,93.875
1764837627.9484289,0,0,-1335,-166.875
1764837627.952414,0,0,987,123.375
1764837627.9564176,0,0,6227,778.375
1764837627.96042,0,0,5139,642.375
1764837627.9644346,1,1,650,81.250
1764837627.968471,0,0,-1350,-168.750
1764837627.972421,0,0,647,80.875
1764837627.976416,0,0,6035,754.375
1764837627.9804068,0,0,4990,623.750
1764837627.9843967,1,1,467,58.375
1764837627.9884117,0,0,-1434,-179.250
1764837627.9924157,0,0,1041,130.125
1764837627.99641,0,0,6370,796.250
1764837628.0003994,0,0,5896,737.000
1764837628.0043943,1,1,1509,188.625
1764837628.008416,0,0,-1304,-163.000
1764837628.012415,0,0,721,90.125
1764837628.016413,0,0,6159,769.875
1764837628.0204165,0,0,5710,713.750
1764837628.0244112,1,1,1288,161.000
1764837628.0284154,0,0,-1352,-169.000
1764837628.032413,0,0,430,53.750
1764837628.0364091,0,0,5959,744.875
1764837628.0404112,0,0,5608,701.000
1764837628.0444093,1,1,1178,147.250
1764837628.0484183,0,0,-1414,-176.750
1764837628.0524888,0,0,463,57.875
1764837628.0564227,0,0,6003,750.375
1764837628.0603943,0,0,5923,740.375
1764837628.0643938,1,1,1580,197.500
1764837628.0684102,0,0,-1353,-169.125
1764837628.0724254,0,0,181,22.625
1764837628.0764093,0,0,5773,721.625
1764837628.080403,0,0,5679,709.875
1764837628.0843916,1,1,1272,159.000
1764837628.0884116,0,0,-1420,-177.500
1764837628.09241,0,0,204,25.500
1764837628.096409,0,0,5814,726.750
1764837628.1004126,0,0,6073,759.125
1764837628.1044073,1,1,1819,227.375
1764837628.1084168,0,0,-1312,-164.000
1764837628.1124127,0,0,-91,-11.375
1764837628.1164055,0,0,5544,693.000
1764837628.120397,0,0,5820,727.500
1764837628.1243904,1,1,1492,186.500
1764837628.1284077,0,0,-1405,-175.625
1764837628.1324098,0,0,-83,-10.375
1764837628.1364064,0,0,5575,696.875
1764837628.1404119,0,0,6222,777.750
1764837628.144409,1,1,2091,261.375
1764837628.1484144,0,0,-1285,-160.625
1764837628.1524053,0,0,-344,-43.000
1764837628.1564033,0,0,5302,662.750
1764837628.1604068,0,0,6005,750.625
1764837628.1644099,1,1,1811,226.375
1764837628.1684124,0,0,-1429,-178.625
1764837628.172428,0,0,-301,-37.625
1764837628.1763935,0,0,5362,670.250
1764837628.18041,0,0,6328,791.000
1764837628.1844041,1,1,2307,288.375
1764837628.1883993,0,0,-1247,-155.875
1764837628.192394,0,0,-437,-54.625
1764837628.196389,0,0,5196,649.500
1764837628.2004108,0,0,6307,788.375
1764837628.204407,1,1,2319,289.875
1764837628.208413,0,0,-1325,-165.625
1764837628.2124078,0,0,-537,-67.125
1764837628.2164063,0,0,5063,632.875
1764837628.2203972,0,0,6333,791.625
1764837628.224389,1,1,2405,300.625
1764837628.228804,0,0,-1289,-161.125
1764837628.2324195,0,0,-581,-72.625
1764837628.2364101,0,0,4992,624.000
1764837628.2404075,0,0,6455,806.875
1764837628.244407,1,1,2658,332.250
1764837628.2484133,0,0,-1232,-154.000
1764837629.4958062,0,0,226,28.250
1764837629.497819,0,0,226,28.250
1764837629.5004535,0,0,5335,666.875
1764837629.5044472,0,0,5860,732.500
1764837629.508446,1,1,1873,234.125
1764837629.512433,0,0,-1325,-165.625
1764837629.5164325,0,0,64,8.000
1764837629.520454,0,0,5204,650.500
1764837629.524448,0,0,5923,740.375
1764837629.5284858,1,1,2034,254.250
1764837629.5324283,0,0,-1335,-166.875
1764837629.536428,0,0,-65,-8.125
1764837629.5404563,0,0,5092,636.500
1764837629.544451,0,0,5876,734.500
1764837629.5484512,1,1,1976,247.000
1764837629.552454,0,0,-1355,-169.375
1764837629.5564518,0,0,-292,-36.500
1764837629.5604525,0,0,4886,610.750
1764837629.5644476,0,0,5724,715.500
1764837629.5684526,1,1,1742,217.750
1764837629.5724509,0,0,-1435,-179.375
1764837629.5764496,0,0,-342,-42.750
1764837629.5804513,0,0,4853,606.625
1764837629.5844471,0,0,5913,739.125
1764837629.5884538,1,1,2093,261.625
1764837629.5924516,0,0,-1404,-175.500
1764837629.5964522,0,0,-392,-49.000
1764837629.6004515,0,0,4809,601.125
1764837629.6044464,0,0,6121,765.125
1764837629.6084576,1,1,2538,317.250
1764837629.6124566,0,0,-1254,-156.750
1764837629.616451,0,0,-565,-70.625
1764837629.6204293,0,0,4598,574.750
1764837629.6244268,0,0,5938,742.250
1764837629.6284683,1,1,2221,277.625
1764837629.6324067,0,0,-1403,-175.375
1764837629.636406,0,0,-604,-75.500
1764837629.640397,0,0,4554,569.250
1764837629.6443849,0,0,6105,763.125
1764837629.6483653,1,1,2585,323.125
1764837629.6524074,0,0,-1280,-160.000
1764837629.6564047,0,0,-680,-85.000
1764837629.660404,0,0,4441,555.125
1764837629.6644008,0,0,6158,769.750
1764837629.6684062,1,1,2761,345.125
1764837629.6724038,0,0,-1259,-157.375
1764837629.6764035,0,0,-782,-97.750
1764837629.6803968,0,0,4280,535.000
1764837629.6843865,0,0,6099,762.375
1764837629.6883945,1,1,2689,336.125
1764837629.6924922,0,0,-1319,-164.875
1764837629.6964183,0,0,-808,-101.000
1764837629.7003992,0,0,4234,529.250
1764837629.7043839,0,0,6242,780.250
1764837629.708404,1,1,3072,384.000
1764837629.7124052,0,0,-1133,-141.625
1764837629.7164037,0,0,-862,-107.750
1764837629.7203977,0,0,4168,521.000
1764837629.7243874,0,0,6350,793.750
1764837629.7284184,1,1,3445,430.625
1764837629.7324424,0,0,-854,-106.750
1764837629.7364023,0,0,-1098,-137.250
1764837629.7404063,0,0,3864,483.000
1764837629.7443988,0,0,6164,770.500
1764837629.7484112,1,1,3117,389.625
1764837629.752404,0,0,-1130,-141.250
1764837629.756417,0,0,-982,-122.750
1764837629.7604067,0,0,3830,478.750
1764837629.7643983,0,0,6302,787.750
1764837629.7684069,1,1,3560,445.000
1764837629.7724013,0,0,-781,-97.625
1764837629.7764032,0,0,-1135,-141.875
1764837629.7804098,0,0,3719,464.875
1764837629.7844021,0,0,6338,792.250
1764837629.7883947,0,1,3806,475.750
1764837629.792386,0,0,-569,-71.125
1764837629.7963843,0,0,-1307,-163.375
1764837629.8003998,0,0,3483,435.375
1764837629.8044007,0,0,6259,782.375
1764837629.808495,1,1,3763,470.375
1764837629.8127902,0,0,-620,-77.500
1764837629.8164623,0,0,-1275,-159.375
1764837629.8203998,0,0,3781,472.625
1764837629.824386,0,0,6535,816.875
1764837629.8284004,0,0,4814,601.750
1764837629.832437,0,0,463,57.875
1764837629.8363998,0,0,-1555,-194.375
1764837629.8403988,0,0,3162,395.250
1764837629.844394,0,0,6141,767.625
1764837629.8483999,0,0,3861,482.625
1764837629.852399,0,0,-575,-71.875
1764837629.856398,0,0,-1384,-173.000
1764837629.8604014,0,0,2944,368.000
1764837629.8643992,0,0,6140,767.500
1764837629.8685975,0,0,4074,509.250
1764837629.8723865,0,0,-370,-46.250
1764837629.8763843,0,0,-1408,-176.000
1764837629.880385,0,0,2733,341.625
1764837629.8843815,0,0,6110,763.750
1764837629.8883772,0,0,4172,521.500
1764837629.8924592,0,1,-282,-35.250
1764837629.896398,0,0,-1505,-188.125
1764837629.9003906,0,0,2740,342.500
1764837629.9043827,0,0,6171,771.375
1764837629.908382,0,0,4509,563.625
1764837629.912403,1,1,65,8.125
1764837629.9164011,0,0,-1504,-188.000
1764837629.9204032,0,0,2360,295.000
1764837629.9244,0,0,6020,752.500
1764837629.9283948,0,0,4279,534.875
1764837629.93242,1,1,-207,-25.875
1764837629.9363868,0,0,-1430,-178.750
1764837629.9404151,0,0,2191,273.875
1764837629.9444025,0,0,6030,753.750
1764837629.948409,0,0,4540,567.500
1764837629.9524,1,1,72,9.000
1764837629.956401,0,0,-1467,-183.375
1764837629.9604082,0,0,1829,228.625
1764837629.964401,0,0,5891,736.375
1764837629.9684055,0,0,4278,534.750
1764837629.9724069,1,1,-238,-29.750
1764837629.9764006,0,0,-1407,-175.875
1764837629.9804022,0,0,1856,232.000
1764837629.9843974,0,0,6033,754.125
1764837629.9884036,0,0,4986,623.250
1764837629.9924018,1,1,574,71.750
1764837629.9964027,0,0,-1482,-185.250
1764837630.0004046,0,0,1574,196.750
1764837630.0044,0,0,5916,739.500
1764837630.008408,0,0,4797,599.625
1764837630.012399,1,1,324,40.500
1764837630.0164044,0,0,-1463,-182.875
1764837630.02041,0,0,1558,194.750
1764837630.0243986,0,0,5965,745.625
1764837630.028393,0,0,5220,652.500
1764837630.0323832,1,1,850,106.250
1764837630.036419,0,0,-1410,-176.250
1764837630.0403857,0,0,1317,164.625
1764837630.0443835,0,0,5877,734.625
1764837630.0483856,0,0,5257,657.125
1764837630.052383,1,1,896,112.000
1764837630.0563812,0,0,-1390,-173.750
1764837630.06041,0,0,1033,129.125
1764837630.0643969,0,0,5750,718.750
1764837630.0684018,0,0,5088,636.000
1764837630.0723994,1,1,665,83.125
1764837630.0764084,0,0,-1397,-174.625
1764837630.0804021,0,0,850,106.250
1764837630.0843987,0,0,5695,711.875
1764837630.0883987,0,0,5271,658.875
1764837630.0924978,1,1,909,113.625
1764837630.096412,0,0,-1400,-175.000
1764837630.100392,0,0,694,86.750
1764837630.1043756,0,0,5620,702.500
1764837630.1083908,0,0,5270,658.750
1764837630.1123967,1,1,901,112.625
1764837630.116396,0,0,-1438,-179.750
1764837630.120391,0,0,581,72.625
1764837630.1243804,0,0,5584,698.000
1764837630.1284041,0,0,5558,694.750
1764837630.132413,1,1,1341,167.625
1764837630.1364374,0,0,-1343,-167.875
1764837630.140402,0,0,157,19.625
1764837630.1443958,0,0,5310,663.750
1764837630.148402,0,0,5220,652.500
1764837630.15241,1,1,856,107.000
1764837630.1563988,0,0,-1456,-182.000
1764837630.1604013,0,0,462,57.750
1764837630.1643953,0,0,5568,696.000
1764837630.1684024,0,0,5944,743.000
1764837630.172398,1,1,1911,238.875
1764837630.1763961,0,0,-1312,-164.000
1764837630.1804273,0,0,239,29.875
1764837630.1844056,0,0,5397,674.625
1764837630.188389,0,0,5763,720.375
1764837630.1923828,1,1,1642,205.250
1764837630.1963804,0,0,-1401,-175.125
1764837630.2004008,0,0,156,19.500
1764837630.2043943,0,0,5331,666.375
1764837630.2083912,0,0,5959,744.875
1764837630.212378,1,1,2007,250.875
1764837630.2163775,0,0,-1372,-171.500
1764837630.2203972,0,0,-8,-1.000
1764837630.2243948,0,0,5188,648.500
1764837630.228397,0,0,5869,733.625
1764837630.232395,1,1,1890,236.250
1764837630.2364073,0,0,-1378,-172.250
1764837630.2403975,0,0,-154,-19.250
1764837630.2443948,0,0,5057,632.125
1764837630.248398,0,0,5881,735.125
1764837630.2523952,1,1,1948,243.500
1764837630.2563927,0,0,-1415,-176.875
1764837630.2603965,0,0,-226,-28.250
1764837630.2643912,0,0,4991,623.875
1764837630.2683947,0,0,6058,757.250
1764837630.2723942,1,1,2312,289.000
1764837630.2763956,0,0,-1343,-167.875
1764837630.280397,0,0,-275,-34.375
1764837630.2843926,0,0,4934,616.750
1764837630.288393,0,0,6222,777.750
1764837630.2924745,1,1,2711,338.875
1764837630.29641,0,0,-1210,-151.250
1764837630.3003893,0,0,-339,-42.375
1764837630.3043756,0,0,4846,605.750
1764837630.3083892,0,0,6260,782.500
1764837630.3123925,1,1,2876,359.500
1764837630.316396,0,0,-1142,-142.750
1764837630.3203857,0,0,-478,-59.750
1764837630.3243759,0,0,4665,583.125
1764837630.3283956,0,0,6208,776.000
1764837630.3323925,1,1,2874,359.250
1764837630.3363945,0,0,-1180,-147.500
1764837630.340439,0,0,-559,-69.875
1764837630.3443918,0,0,4548,568.500
1764837630.3483992,0,0,6226,778.250
1764837630.3523936,1,1,3017,377.125
1764837630.3563972,0,0,-1104,-138.000
1764837630.360398,0,0,-702,-87.750
1764837630.3643916,0,0,4328,541.000
1764837630.3683872,0,0,6107,763.375
1764837630.3723733,1,1,2844,355.500
1764837630.3763778,0,0,-1228,-153.500
1764837630.3803983,0,0,-750,-93.750
1764837630.3843935,0,0,4242,530.250
1764837630.3883994,0,0,6193,774.125
1764837630.3923936,1,1,3136,392.000
1764837630.3963954,0,0,-1087,-135.875
1764837630.4003978,0,0,-804,-100.500
1764837630.4043937,0,0,4156,519.500
1764837630.4083965,0,0,6239,779.875
1764837630.412389,1,1,3352,419.000
1764837630.416394,0,0,-940,-117.500
1764837630.420413,0,0,-973,-121.625
1764837630.4244041,0,0,3941,492.625
1764837630.4283879,0,0,6130,766.250
1764837630.4323764,1,1,3191,398.875
1764837630.4363785,0,0,-1082,-135.250
1764837630.4404361,0,0,3808,476.000
1764837630.4443958,0,0,6162,770.250
1764837630.448381,0,0,3393,424.125
1764837630.452371,1,1,-932,-116.500
1764837630.456376,0,0,-1114,-139.250
1764837630.460396,0,0,3705,463.125
1764837630.4643931,0,0,6189,773.625
1764837630.4683938,0,0,3589,448.625
1764837630.472392,1,1,-778,-97.250
1764837630.4763894,0,0,-1142,-142.750
1764837630.4803963,0,0,3604,450.500
1764837630.4843957,0,0,6225,778.125
1764837630.4883933,0,0,3864,483.000
1764837630.4979076,0,0,-1320,-165.000
1764837630.5004077,0,0,3531,441.375
1764837630.5043972,0,0,6235,779.375
1764837630.5083854,0,0,4059,507.375
1764837630.5123758,1,1,-353,-44.125
1764837630.5163777,0,0,-1416,-177.000
1764837630.5203965,0,0,3217,402.125
1764837630.5243928,0,0,6089,761.125
1764837630.5283833,0,0,3847,480.875
1764837630.5323708,1,1,-582,-72.750
1764837630.5363746,0,0,-1361,-170.125
1764837630.5404353,0,0,3101,387.625
1764837630.5443945,0,0,6135,766.875
1764837630.5483825,0,0,4214,526.750
1764837630.5523765,1,1,-214,-26.750
1764837630.5563772,0,0,-1435,-179.375
1764837630.560398,0,0,2832,354.000
1764837630.5643919,0,0,6018,752.250
1764837630.5683959,0,0,4027,503.375
1764837630.5723882,1,1,-436,-54.500
1764837630.5763888,0,0,-1464,-183.000
1764837630.580489,0,0,2723,340.375
1764837630.584407,0,0,6073,759.125
1764837630.5883896,0,0,4459,557.375
1764837630.5923758,1,1,29,3.625
1764837630.5963755,0,0,-1514,-189.250
1764837630.6003942,0,0,2588,323.500
1764837630.6043923,0,0,6029,753.625
1764837630.6083825,0,0,4502,562.750
1764837630.612372,1,1,57,7.125
1764837630.6163719,0,0,-1504,-188.000
1764837630.6203935,0,0,2264,283.000
1764837630.624391,0,0,5913,739.125
1764837630.6283927,0,0,4357,544.625
1764837630.632388,1,1,-123,-15.375
1764837630.6363866,0,0,-1486,-185.750
1764837630.6403925,0,0,2168,271.000
1764837630.6444066,0,0,5930,741.250
1764837630.6483898,0,0,4615,576.875
1764837630.6523845,1,1,160,20.000
1764837630.6563892,0,0,-1533,-191.625
1764837630.6603928,0,0,2024,253.000
1764837630.664387,0,0,5912,739.000
1764837630.6683912,0,0,4830,603.750
1764837630.672388,1,1,414,51.750
1764837630.6763873,0,0,-1544,-193.000
1764837630.680389,0,0,1839,229.875
1764837630.684387,0,0,5854,731.750
1764837630.688391,0,0,4886,610.750
1764837630.6923854,1,1,476,59.500
1764837630.6964712,0,0,-1518,-189.750
1764837630.7003891,0,0,1732,216.500
1764837630.7043757,0,0,5847,730.875
1764837630.7083821,0,0,5245,655.625
1764837630.7123866,1,1,964,120.500
1764837630.7163854,0,0,-1446,-180.750
1764837630.720393,0,0,1390,173.750
1764837630.7243893,0,0,5708,713.500
1764837630.7283802,0,0,5104,638.000
1764837630.7323697,1,1,772,96.500
1764837630.7363708,0,0,-1439,-179.875
1764837630.7403922,0,0,1227,153.375
1764837630.744431,0,0,5662,707.750
1764837630.748397,0,0,5258,657.250
1764837630.7523904,1,1,990,123.750
1764837630.7563884,0,0,-1390,-173.750
1764837630.7603931,0,0,1040,130.000
1764837630.764388,0,0,5581,697.625
1764837630.7683897,0,0,5260,657.500
1764837630.772385,1,1,996,124.500
1764837630.7763853,0,0,-1396,-174.500
1764837630.780391,0,0,815,101.875
1764837630.7843902,0,0,5482,685.250
1764837630.788394,0,0,5236,654.500
1764837630.7923887,1,1,964,120.500
1764837630.796386,0,0,-1403,-175.375
1764837630.8003914,0,0,613,76.625
1764837630.8043878,0,0,5382,672.750
1764837630.8084133,0,0,5219,652.375
1764837630.8127666,1,1,938,117.250
1764837630.8164744,0,0,-1484,-185.500
1764837630.8204134,0,0,798,99.750
1764837630.8243904,0,0,5493,686.625
1764837630.828393,0,0,5726,715.750
1764837630.8323975,1,1,1752,219.000
1764837630.8363833,0,0,-1305,-163.125
1764837630.8404992,0,0,303,37.875
1764837630.8444057,0,0,5175,646.875
1764837630.848394,0,0,5271,658.875
1764837630.8523712,1,1,1071,133.875
1764837630.856371,0,0,-1418,-177.250
1764837630.860393,0,0,-31,-3.875
1764837630.86439,0,0,4959,619.875
1764837630.8683822,0,0,5072,634.000
1764837630.872394,1,1,759,94.875
1764837630.8763857,0,0,-1470,-183.750
1764837630.8803918,0,0,198,24.750
1764837630.8843844,0,0,5191,648.875
1764837630.888389,0,0,5794,724.250
1764837630.8923829,1,1,1884,235.500
1764837630.8964636,0,0,-1403,-175.375
1764837630.9004018,0,0,144,18.000
1764837630.9043908,0,0,5148,643.500
1764837630.9083917,0,0,5910,738.750
1764837630.9123821,1,1,2137,267.125
1764837630.9163833,0,0,-1309,-163.625
1764837630.9203932,0,0,-45,-5.625
1764837630.924385,0,0,4980,622.500
1764837630.9283803,0,0,5799,724.875
1764837630.932367,1,1,1982,247.750
1764837630.936369,0,0,-1419,-177.375
1764837630.940389,0,0,-124,-15.500
1764837630.9444287,0,0,4904,613.000
1764837630.9483936,0,0,5917,739.625
1764837630.9523902,1,1,2265,283.125
1764837630.9563842,0,0,-1309,-163.625
1764837630.9603925,0,0,-257,-32.125
1764837630.964386,0,0,4772,596.500
1764837630.9683902,0,0,5903,737.875
1764837630.9723983,1,1,2297,287.125
1764837630.9763992,0,0,-1332,-166.500
1764837630.98038,0,0,-356,-44.500
1764837630.984376,0,0,4664,583.000
1764837630.9883878,0,0,5931,741.375
1764837630.9923854,1,1,2419,302.375
1764837630.996386,0,0,-1309,-163.625
1764837631.000379,0,0,-417,-52.125
1764837631.0043702,0,0,4588,573.500
1764837631.008385,0,0,6048,756.000
1764837631.0123832,1,1,2760,345.000
1764837631.0163808,0,0,-1252,-156.500
1764837631.0203853,0,0,-540,-67.500
1764837631.0243855,0,0,4430,553.750
1764837631.0283892,0,0,5960,745.000
1764837631.032384,1,1,2635,329.375
1764837631.0363808,0,0,-1246,-155.750
1764837631.0403898,0,0,-651,-81.375
1764837631.0443838,0,0,4273,534.125
1764837631.0483866,0,0,5986,748.250
1764837631.0523822,1,1,2798,349.750
1764837631.056381,0,0,-1254,-156.750
1764837631.060373,0,0,-747,-93.375
1764837631.064366,0,0,4127,515.875
1764837631.0683806,0,0,5927,740.875
1764837631.0723846,1,1,2720,340.000
1764837631.0763836,0,0,-1304,-163.000
1764837631.0803874,0,0,-763,-95.375
1764837631.0843835,0,0,4105,513.125
1764837631.088389,0,0,6080,760.000
1764837631.0923822,1,1,3178,397.250
1764837631.0964599,0,0,-1086,-135.750
1764837631.1003828,0,0,-824,-103.000
1764837631.104369,0,0,4021,502.625
1764837631.108386,0,0,6070,758.750
1764837631.1123838,1,1,3246,405.750
1764837631.1163824,0,0,-1050,-131.250
1764837631.1203794,0,0,-910,-113.750
1764837631.1243694,0,0,3839,479.875
1764837631.1283867,0,0,6057,757.125
1764837631.1323864,1,1,3380,422.500
1764837631.13638,0,0,-953,-119.125
1764837631.1403835,0,0,-1091,-136.375
1764837631.1443825,0,0,3650,456.250
1764837631.1484306,0,0,6027,753.375
1764837631.1523843,1,1,3462,432.750
1764837631.1563833,0,0,-896,-112.000
1764837631.1603906,0,0,-1062,-132.750
1764837631.164381,0,0,3620,452.500
1764837631.1683908,0,0,6118,764.750
1764837631.1723816,1,1,3903,487.875
1764837631.1763833,0,0,-486,-60.750
1764837631.1803818,0,0,-1299,-162.375
1764837631.1843767,0,0,3329,416.125
1764837631.1883862,0,0,5943,742.875
1764837631.1923854,1,1,3525,440.625
1764837631.1963792,0,0,-874,-109.250
1764837631.2003837,0,0,-1214,-151.750
1764837631.2043798,0,0,3236,404.500
1764837631.20839,0,0,6017,752.125
1764837631.2123857,1,1,3940,492.500
1764837631.2163901,0,0,-479,-59.875
1764837631.2203834,0,0,-1347,-168.375
1764837631.2243786,0,0,3049,381.125
1764837631.2283864,0,0,5953,744.125
1764837631.2323813,1,1,3894,486.750
1764837631.2363818,0,0,-544,-68.000
1764837631.2404044,0,0,-1356,-169.500
1764837631.2443912,0,0,3067,383.375
1764837631.2483957,0,0,6037,754.625
1764837631.252369,1,1,4380,547.500
1764837631.2563674,0,0,-29,-3.625
1764837631.260382,0,0,-1511,-188.875
1764837631.2643764,0,0,2762,345.250
1764837631.2683735,0,0,5903,737.875
1764837631.272365,1,1,4178,522.250
1764837631.276365,0,0,-276,-34.500
1764837631.280385,0,0,-1428,-178.500
1764837631.2843769,0,0,2576,322.000
1764837631.2883842,0,0,5879,734.875
1764837631.2923813,1,1,4345,543.125
1764837631.2964618,0,0,-97,-12.125
1764837631.30038,0,0,-1537,-192.125
1764837631.3043602,0,0,2502,312.750
1764837631.3083808,0,0,5888,736.000
1764837631.3123827,1,1,4630,578.750
1764837631.3163812,0,0,233,29.125
1764837631.3203733,0,0,-1541,-192.625
1764837631.3243635,0,0,2170,271.250
1764837631.3283844,0,0,5754,719.250
1764837631.3323827,1,1,4408,551.000
1764837631.3363826,0,0,-52,-6.500
1764837631.3403845,0,0,-1422,-177.750
1764837631.3443794,0,0,1944,243.000
1764837631.3484273,0,0,5710,713.750
1764837631.3523817,1,1,4500,562.500
1764837631.356379,0,0,44,5.500
1764837631.3603883,0,0,-1477,-184.625
1764837631.3643913,0,0,1872,234.000
1764837631.3683746,0,0,5748,718.500
1764837631.3723645,0,1,4952,619.000
1764837631.3763669,0,0,622,77.750
1764837631.3803816,0,0,-1512,-189.000
1764837631.3843825,0,0,1609,201.125
1764837631.3883727,0,0,5648,706.000
1764837631.3923628,0,0,4836,604.500
1764837631.396361,0,0,456,57.000
1764837631.4003773,0,0,-1476,-184.500
1764837631.4043775,0,0,1583,197.875
1764837631.408381,0,0,5666,708.250
1764837631.4123785,0,0,5223,652.875
1764837631.416379,0,0,999,124.875
1764837631.4203854,0,0,-1440,-180.000
1764837631.4243774,0,0,1301,162.625
1764837631.4283817,0,0,5556,694.500
1764837631.4323785,0,0,5198,649.750
1764837631.4363801,0,0,977,122.125
1764837631.4403846,0,0,-1400,-175.000
1764837631.444373,0,0,1132,141.500
1764837631.4483747,0,0,5495,686.875
1764837631.4524167,0,0,5355,669.375
1764837631.4563773,0,0,1237,154.625
1764837631.460378,0,0,-1380,-172.500
1764837631.4643736,0,0,981,122.625
1764837631.4683812,0,0,5425,678.125
1764837631.4723816,0,0,5422,677.750
1764837631.4763772,1,0,1366,170.750
1764837631.480385,0,0,-1345,-168.125
1764837631.4843755,0,0,724,90.500
1764837631.488373,0,0,5295,661.875
1764837631.492375,0,0,5341,667.625
1764837631.5019965,0,0,706,88.250
1764837631.504393,0,0,706,88.250
1764837631.50838,0,0,5279,659.875
1764837631.512366,0,0,5602,700.250
1764837631.5163615,1,0,1737,217.125
1764837631.520382,0,0,-1352,-169.000
1764837631.5243776,0,0,429,53.625
1764837631.5283673,0,0,5104,638.000
1764837631.5323598,0,0,5371,671.375
1764837631.5363605,1,1,1357,169.625
1764837631.5403836,0,0,-1411,-176.375
1764837631.544377,0,0,278,34.750
1764837631.5483813,0,0,5013,626.625
1764837631.5524163,0,0,5454,681.750
1764837631.5563793,1,1,1522,190.250
1764837631.560385,0,0,-1407,-175.875
1764837631.5643744,0,0,168,21.000
1764837631.5683637,0,0,4947,618.375
1764837631.5723596,0,0,5519,689.875
1764837631.5763597,1,1,1655,206.875
1764837631.5803704,0,0,-1376,-172.000
1764837631.5843601,0,0,49,6.125
1764837631.588375,0,0,4864,608.000
1764837631.5923753,0,0,5530,691.250
1764837631.5963778,1,1,1685,210.625
1764837631.6003842,0,0,41,5.125
1764837631.6043756,0,0,4864,608.000
1764837631.6083755,0,0,5823,727.875
1764837631.6123734,0,0,2326,290.750
1764837631.6163745,1,1,-1315,-164.375
1764837631.6203632,0,0,-104,-13.000
1764837631.6243563,0,0,4735,591.875
1764837631.6283739,0,0,5751,718.875
1764837631.6323752,0,0,2236,279.500
1764837631.6363752,1,1,-1295,-161.875
1764837631.6403825,0,0,-249,-31.125
1764837631.6443782,0,0,4594,574.250
1764837631.648376,0,0,5717,714.625
1764837631.6523862,0,0,2222,277.750
1764837631.6563764,1,1,-1369,-171.125
1764837631.6603754,0,0,-337,-42.125
1764837631.664372,0,0,4508,563.500
1764837631.6683743,0,0,5708,713.500
1764837631.6723702,0,0,2246,280.750
1764837631.6763852,1,1,-1336,-167.000
1764837631.6803763,0,0,-600,-75.000
1764837631.684362,0,0,4225,528.125
1764837631.688374,0,0,5569,696.125
1764837631.6923745,0,0,1997,249.625
1764837631.6963708,1,1,-1424,-178.000
1764837631.7004566,0,0,-497,-62.125
1764837631.7043846,0,0,4378,547.250
1764837631.7083745,0,0,5929,741.125
1764837631.7123673,0,0,2799,349.875
1764837631.716371,1,1,-1250,-156.250
1764837631.7203712,0,0,-543,-67.875
1764837631.724362,0,0,4320,540.000
1764837631.7283506,0,0,5975,746.875
1764837631.7323582,0,0,3009,376.125
1764837631.7363575,1,1,-1195,-149.375
1764837631.7403822,0,0,-652,-81.500
1764837631.7443752,0,0,4156,519.500
1764837631.7483752,0,0,5925,740.625
1764837631.7523696,0,0,3018,377.250
1764837631.7564116,1,1,-1160,-145.000
1764837631.760383,0,0,-724,-90.500
1764837631.764371,0,0,4035,504.375
1764837631.7683713,0,0,5914,739.250
1764837631.772373,0,0,3098,387.250
1764837631.7763824,1,1,-1158,-144.750
1764837631.780367,0,0,-766,-95.750
1764837631.7843575,0,0,3957,494.625
1764837631.7883704,0,0,5989,748.625
1764837631.79237,0,0,3486,435.750
1764837631.7963676,1,1,-850,-106.250
1764837631.8003669,0,0,-949,-118.625
1764837631.8043582,0,0,3752,469.000
1764837631.808469,0,0,5900,737.500
1764837631.812731,0,0,3406,425.750
1764837631.8164291,1,1,-931,-116.375
1764837631.8203819,0,0,-1034,-129.250
1764837631.8243728,0,0,3561,445.125
1764837631.828376,0,0,5802,725.250
1764837631.8323698,0,0,3219,402.375
1764837631.8363667,1,1,-1112,-139.000
1764837631.840375,0,0,-1013,-126.625
1764837631.8443706,0,0,3500,437.500
1764837631.8483725,0,0,5888,736.000
1764837631.8523664,0,0,3645,455.625
1764837631.8564079,1,1,-743,-92.875
1764837631.8603745,0,0,-1186,-148.250
1764837631.8643692,0,0,3327,415.875
1764837631.8683686,0,0,5849,731.125
1764837631.8723552,0,0,3710,463.750
1764837631.8763552,1,1,-694,-86.750
1764837631.8803785,0,0,-1222,-152.750
1764837631.8843737,0,0,3122,390.250
1764837631.8883781,0,0,5788,723.500
1764837631.8923712,0,0,3678,459.750
1764837631.8963697,1,1,-739,-92.375
1764837631.9004514,0,0,-1218,-152.250
1764837631.9043741,0,0,2978,372.250
1764837631.9083757,0,0,5779,722.375
1764837631.912356,0,0,3786,473.250
1764837631.9163532,1,1,-649,-81.125
1764837631.9203765,0,0,-1290,-161.250
1764837631.9243693,0,0,2900,362.500
1764837631.9283643,0,0,5836,729.500
1764837631.9323542,0,0,4205,525.625
1764837631.9363525,1,1,-203,-25.375
1764837631.9403777,0,0,-1435,-179.375
1764837631.9443738,0,0,2773,346.625
1764837631.94838,0,0,5803,725.375
1764837631.9523716,0,0,4288,536.000
1764837631.9563718,1,1,-117,-14.625
1764837631.9604158,0,0,-1471,-183.875
1764837631.9643714,0,0,2614,326.750
1764837631.9683735,0,0,5758,719.750
1764837631.9723713,0,0,4362,545.250
1764837631.9763687,1,1,-45,-5.625
1764837631.980362,0,0,-1519,-189.875
1764837631.9843545,0,0,2471,308.875
1764837631.9883764,0,0,5729,716.125
1764837631.9923692,0,0,4552,569.000
1764837631.99637,1,1,187,23.375
1764837632.000375,0,0,-1534,-191.750
1764837632.0043733,0,0,2347,293.375
1764837632.0083718,0,0,5702,712.750
1764837632.0123696,0,0,4798,599.750
1764837632.0163686,1,1,510,63.750
1764837632.0203698,0,0,-1570,-196.250
1764837632.0243711,0,0,2061,257.625
1764837632.028376,0,0,5580,697.500
1764837632.032368,0,0,4599,574.875
1764837632.036366,1,1,240,30.000
1764837632.0403767,0,0,-1545,-193.125
1764837632.0443707,0,0,1933,241.625
1764837632.0483723,0,0,5561,695.125
1764837632.0523672,0,0,4897,612.125
1764837632.0563643,1,1,650,81.250
1764837632.060383,0,0,-1540,-192.500
1764837632.0643735,0,0,1657,207.125
1764837632.0683742,0,0,5459,682.375
1764837632.0723555,0,0,4794,599.250
1764837632.076348,1,1,501,62.625
1764837632.0803707,0,0,-1520,-190.000
1764837632.0843697,0,0,1548,193.500
1764837632.0883713,0,0,5431,678.875
1764837632.0923676,0,0,4964,620.500
1764837632.0963662,1,1,746,93.250
1764837632.1004572,0,0,-1486,-185.750
1764837632.1043873,0,0,1400,175.000
1764837632.1083682,0,0,5390,673.750
1764837632.1123514,0,0,5248,656.000
1764837632.116351,1,1,1220,152.500
1764837632.120371,0,0,-1389,-173.625
1764837632.1243703,0,0,1062,132.750
1764837632.1283731,0,0,5248,656.000
1764837632.1323683,0,0,5009,626.125
1764837632.1363637,1,1,839,104.875
1764837632.1403737,0,0,-1428,-178.500
1764837632.1443727,0,0,944,118.000
1764837632.148376,0,0,5219,652.375
1764837632.1523716,0,0,5237,654.625
1764837632.156368,1,1,1224,153.000
1764837632.1603734,0,0,-1390,-173.750
1764837632.1644037,0,0,720,90.000
1764837632.1683753,0,0,5116,639.500
1764837632.1723735,0,0,5169,646.125
1764837632.1763809,1,1,1117,139.625
1764837632.1803632,0,0,-1391,-173.875
1764837632.184353,0,0,507,63.375
1764837632.188371,0,0,5009,626.125
1764837632.1923714,0,0,5084,635.500
1764837632.196367,1,1,977,122.125
1764837632.200361,0,0,-1400,-175.000
1764837632.2043483,0,0,517,64.625
1764837632.2083647,0,0,5036,629.500
1764837632.2123687,0,0,5513,689.125
1764837632.2163677,1,1,1773,221.625
1764837632.220364,0,0,-1392,-174.000
1764837632.2243638,0,0,330,41.250
1764837632.2283702,0,0,4912,614.000
1764837632.232367,0,0,5309,663.625
1764837632.2363682,1,1,1394,174.250
1764837632.2403708,0,0,-1431,-178.875
1764837632.2443655,0,0,238,29.750
1764837632.2483687,0,0,4852,606.500
1764837632.2523677,0,0,5418,677.250
1764837632.2563632,1,1,1628,203.500
1764837632.260368,0,0,-1350,-168.750
1764837632.264376,0,0,98,12.250
1764837632.26837,0,0,4756,594.500
1764837632.2723658,0,0,5514,689.250
1764837632.276365,1,1,1864,233.000
1764837632.2803707,0,0,-1402,-175.250
1764837632.284364,0,0,9,1.125
1764837632.2883723,0,0,4692,586.500
1764837632.292366,0,0,5588,698.500
1764837632.2963655,1,1,2062,257.750
1764837632.3004482,0,0,-1367,-170.875
1764837632.3043802,0,0,-12,-1.500
1764837632.308364,0,0,4667,583.375
1764837632.312349,0,0,5805,725.625
1764837632.3163512,1,1,2684,335.500
1764837632.320368,0,0,-1220,-152.500
1764837632.324364,0,0,-175,-21.875
1764837632.3283591,0,0,4515,564.375
1764837632.3323522,0,0,5662,707.750
1764837632.336351,1,1,2407,300.875
1764837632.340372,0,0,-1282,-160.250
1764837632.3443658,0,0,-347,-43.375
1764837632.3483703,0,0,4335,541.875
1764837632.3523672,0,0,5540,692.500
1764837632.3563676,1,1,2188,273.500
1764837632.3603702,0,0,-1376,-172.000
1764837632.3643649,0,0,-434,-54.250
1764837632.3683586,0,0,4248,531.000
1764837632.3723526,0,0,5617,702.125
1764837632.3763738,1,1,2434,304.250
1764837632.3803835,0,0,-1314,-164.250
1764837632.3843725,0,0,-457,-57.125
1764837632.38836,0,0,4223,527.875
1764837632.3923492,0,0,5766,720.750
1764837632.3963492,1,1,2925,365.625
1764837632.4003718,0,0,-1132,-141.500
1764837632.404362,0,0,-591,-73.875
1764837632.4083567,0,0,4050,506.250
1764837632.4123495,0,0,5713,714.125
1764837632.41635,1,1,2910,363.750
1764837632.4203706,0,0,-1185,-148.125
1764837632.4243622,0,0,-642,-80.250
1764837632.4283817,0,0,3973,496.625
1764837632.4323664,0,0,5706,713.250
1764837632.4363663,1,1,2961,370.125
1764837632.4403727,0,0,-1181,-147.625
1764837632.4443624,0,0,-735,-91.875
1764837632.448367,0,0,3834,479.250
1764837632.4523628,0,0,5687,710.875
1764837632.4563644,1,1,3022,377.750
1764837632.4603686,0,0,-1153,-144.125
1764837632.4643612,0,0,-776,-97.000
1764837632.4683833,0,0,3763,470.375
1764837632.4723659,0,0,5731,716.375
1764837632.4763637,1,1,3290,411.250
1764837632.4803739,0,0,-1008,-126.000
