Timestamp,LO_plus,LO_minus,Raw_ADC,Voltage_mV
1764974977.4089901,0,0,0,0.000
1764974977.410833,0,0,0,0.000
1764974977.4125416,0,0,9,1.125
1764974977.415131,0,0,12,1.500
1764974977.4191332,0,0,10,1.250
1764974977.423124,1,1,1,0.125
1764974977.427158,0,0,3,0.375
1764974977.4311347,0,0,12,1.500
1764974977.435129,0,0,15,1.875
1764974977.4391325,0,0,13,1.625
1764974977.443128,1,1,5,0.625
1764974977.447126,0,0,6,0.750
1764974977.4511304,0,0,14,1.750
1764974977.4551268,0,0,17,2.125
1764974977.4591398,0,0,15,1.875
1764974977.463155,1,1,6,0.750
1764974977.467127,0,0,6,0.750
1764974977.4711285,0,0,15,1.875
1764974977.4751256,0,0,17,2.125
1764974977.4791331,0,0,16,2.000
1764974977.4831376,1,1,9,1.125
1764974977.487135,0,0,9,1.125
1764974977.491165,0,0,16,2.000
1764974977.4951322,0,0,18,2.250
1764974977.4991364,0,0,17,2.125
1764974977.5031357,1,1,10,1.250
1764974977.5071363,0,0,9,1.125
1764974977.5111325,0,0,17,2.125
1764974977.5151248,0,0,19,2.375
1764974977.519134,0,0,17,2.125
1764974977.523176,1,1,11,1.375
1764974977.5271397,0,0,9,1.125
1764974977.5311267,0,0,17,2.125
1764974977.5351238,0,0,20,2.500
1764974977.5391314,0,0,19,2.375
1764974977.5431345,1,1,12,1.500
1764974977.547135,0,0,9,1.125
1764974977.5511718,0,0,18,2.250
1764974977.555141,0,0,21,2.625
1764974977.5591338,0,0,19,2.375
1764974977.563125,1,1,13,1.625
1764974977.5671244,0,0,10,1.250
1764974977.571136,0,0,19,2.375
1764974977.575134,0,0,22,2.750
1764974977.5791366,0,0,20,2.500
1764974977.5831704,1,1,14,1.750
1764974977.58714,0,0,10,1.250
1764974977.5911345,0,0,20,2.500
1764974977.595125,0,0,23,2.875
1764974977.5991268,0,0,22,2.750
1764974977.6031885,1,1,15,1.875
1764974977.607159,0,0,10,1.250
1764974977.6111815,0,0,20,2.500
1764974977.615139,0,0,24,3.000
1764974977.6191373,0,0,23,2.875
1764974977.6231215,1,1,16,2.000
1764974977.627137,0,0,10,1.250
1764974977.631189,0,0,21,2.625
1764974977.6351438,0,0,24,3.000
1764974977.6391373,0,0,23,2.875
1764974977.6431234,1,1,17,2.125
1764974977.6471214,0,0,12,1.500
1764974977.6511357,0,0,21,2.625
1764974977.655132,0,0,25,3.125
1764974977.6591735,0,0,24,3.000
1764974977.6631284,1,1,19,2.375
1764974977.6671228,0,0,12,1.500
1764974977.6711338,0,0,23,2.875
1764974977.6751325,0,0,26,3.250
1764974977.679132,0,0,25,3.125
1764974977.683122,1,1,19,2.375
1764974977.687121,0,0,12,1.500
1764974977.691126,0,0,22,2.750
1764974977.695124,0,0,26,3.250
1764974977.6991262,0,0,26,3.250
1764974977.7031252,1,1,21,2.625
1764974977.707152,0,0,13,1.625
1764974977.7111375,0,0,22,2.750
1764974977.7151716,0,0,27,3.375
1764974977.7191434,0,0,26,3.250
1764974977.7231243,1,1,21,2.625
1764974977.7271214,0,0,12,1.500
1764974977.7311342,0,0,22,2.750
1764974977.735165,0,0,27,3.375
1764974977.7391448,0,0,27,3.375
1764974977.743124,1,1,23,2.875
1764974977.7471204,0,0,14,1.750
1764974977.7511322,0,0,24,3.000
1764974977.7551308,0,0,28,3.500
1764974977.7591314,0,0,28,3.500
1764974977.7631218,1,1,23,2.875
1764974977.7671664,0,0,13,1.625
1764974977.771142,0,0,23,2.875
1764974977.775124,0,0,29,3.625
1764974977.7791293,0,0,29,3.625
1764974977.7831306,1,1,24,3.000
1764974977.7871299,0,0,15,1.875
1764974977.7934177,0,0,30,3.750
1764974977.795201,0,0,30,3.750
1764974977.7991707,0,0,28,3.500
1764974977.8031852,1,1,24,3.000
1764974977.8071399,0,0,14,1.750
1764974977.8111367,0,0,24,3.000
1764974977.8151214,0,0,30,3.750
1764974977.8191237,0,0,29,3.625
1764974977.8231225,1,1,25,3.125
1764974977.8271222,0,0,15,1.875
1764974977.8311634,0,0,24,3.000
1764974977.8351254,0,0,30,3.750
1764974977.8391235,0,0,30,3.750
1764974977.8431206,1,1,26,3.250
1764974977.8471203,0,0,16,2.000
1764974977.8511236,0,0,24,3.000
1764974977.8551304,0,0,30,3.750
1764974977.859177,0,0,30,3.750
1764974977.86315,1,1,27,3.375
1764974977.8671293,0,0,17,2.125
1764974977.8711288,0,0,25,3.125
1764974977.8751283,0,0,30,3.750
1764974977.8791487,0,0,31,3.875
1764974977.883129,1,1,27,3.375
1764974977.8871286,0,0,16,2.000
1764974977.8911695,0,0,24,3.000
1764974977.895135,0,0,30,3.750
1764974977.8991327,0,0,31,3.875
1764974977.903128,1,1,27,3.375
1764974977.9071255,0,0,15,1.875
1764974977.9111326,0,0,22,2.750
1764974977.9152334,0,0,30,3.750
1764974977.91924,0,0,31,3.875
1764974977.9232447,1,1,28,3.500
1764974977.9272082,0,0,16,2.000
1764974977.931198,0,0,23,2.875
1764974977.9351923,0,0,30,3.750
1764974977.9392045,0,0,31,3.875
1764974977.943205,1,1,28,3.500
1764974977.947205,0,0,18,2.250
1764974977.9512327,0,0,23,2.875
1764974977.9552245,0,0,31,3.875
1764974977.9592066,0,0,32,4.000
1764974977.9631903,1,1,29,3.625
1764974977.967189,0,0,18,2.250
1764974977.9712064,0,0,23,2.875
1764974977.975206,0,0,32,4.000
1764974977.9792137,0,0,32,4.000
1764974977.9832504,1,1,30,3.750
1764974977.9872105,0,0,19,2.375
1764974977.991196,0,0,23,2.875
1764974977.995192,0,0,31,3.875
1764974977.9992027,0,0,33,4.125
1764974978.003275,1,1,30,3.750
1764974978.0072582,0,0,18,2.250
1764974978.0112085,0,0,22,2.750
1764974978.0153396,0,0,32,4.000
1764974978.0192914,0,0,29,3.625
1764974978.0232866,1,1,18,2.250
1764974978.027284,0,0,22,2.750
1764974978.0313244,0,0,30,3.750
1764974978.0352693,0,0,33,4.125
1764974978.0392694,0,0,30,3.750
1764974978.043263,1,1,20,2.500
1764974978.0472624,0,0,22,2.750
1764974978.0512817,0,0,32,4.000
1764974978.0552776,0,0,33,4.125
1764974978.0593672,0,0,31,3.875
1764974978.0632887,1,1,21,2.625
1764974978.0672755,0,0,22,2.750
1764974978.0712762,0,0,31,3.875
1764974978.07527,0,0,33,4.125
1764974978.0792758,0,0,31,3.875
1764974978.0832806,1,1,22,2.750
1764974978.0872798,0,0,22,2.750
1764974978.0913227,0,0,32,4.000
1764974978.0952792,0,0,34,4.250
1764974978.0992746,0,0,32,4.000
1764974978.103275,1,1,21,2.625
1764974978.107276,0,0,21,2.625
1764974978.1112776,0,0,31,3.875
1764974978.1153703,0,0,34,4.250
1764974978.1192498,0,0,32,4.000
1764974978.1232567,1,1,22,2.750
1764974978.1272337,0,0,21,2.625
1764974978.1312406,0,0,32,4.000
1764974978.1352224,0,0,35,4.375
1764974978.1392295,0,0,33,4.125
1764974978.1432338,1,1,24,3.000
1764974978.1472366,0,0,22,2.750
1764974978.1512659,0,0,33,4.125
1764974978.155255,0,0,35,4.375
1764974978.159235,0,0,32,4.000
1764974978.1632166,1,1,24,3.000
1764974978.1672177,0,0,21,2.625
1764974978.1712399,0,0,31,3.875
1764974978.1752343,0,0,35,4.375
1764974978.1792393,0,0,33,4.125
1764974978.1832762,1,1,26,3.250
1764974978.1872396,0,0,21,2.625
1764974978.1912267,0,0,32,4.000
1764974978.1952202,0,0,35,4.375
1764974978.1992228,0,0,33,4.125
1764974978.2032812,1,1,25,3.125
1764974978.2072713,0,0,19,2.375
1764974978.2112486,0,0,31,3.875
1764974978.2152567,0,0,35,4.375
1764974978.219237,0,0,34,4.250
1764974978.2232327,1,1,25,3.125
1764974978.2272353,0,0,19,2.375
1764974978.2312727,0,0,31,3.875
1764974978.235244,0,0,34,4.250
1764974978.2392328,0,0,33,4.125
1764974978.2432184,1,1,27,3.375
1764974978.2472153,0,0,20,2.500
1764974978.2512343,0,0,31,3.875
1764974978.255236,0,0,35,4.375
1764974978.259239,0,0,35,4.375
1764974978.2632759,1,1,27,3.375
1764974978.2672403,0,0,20,2.500
1764974978.2712278,0,0,31,3.875
1764974978.2752182,0,0,35,4.375
1764974978.279226,0,0,34,4.250
1764974978.2832332,1,1,28,3.500
1764974978.2872324,0,0,20,2.500
1764974978.291222,0,0,30,3.750
1764974978.2952151,0,0,35,4.375
1764974978.2992294,0,0,34,4.250
1764974978.30322,1,1,27,3.375
1764974978.3072674,0,0,19,2.375
1764974978.311248,0,0,30,3.750
1764974978.315318,0,0,34,4.250
1764974978.3192375,0,0,33,4.125
1764974978.323222,1,1,28,3.500
1764974978.3272183,0,0,19,2.375
1764974978.3312328,0,0,30,3.750
1764974978.3353086,0,0,34,4.250
1764974978.3392477,0,0,34,4.250
1764974978.3432207,1,1,28,3.500
1764974978.3472192,0,0,19,2.375
1764974978.3512213,0,0,30,3.750
1764974978.355215,0,0,35,4.375
1764974978.3592277,0,0,35,4.375
1764974978.3632314,1,1,30,3.750
1764974978.3672798,0,0,20,2.500
1764974978.371237,0,0,30,3.750
1764974978.3752162,0,0,35,4.375
1764974978.3792264,0,0,36,4.500
1764974978.383232,1,1,31,3.875
1764974978.3872342,0,0,21,2.625
1764974978.3912282,0,0,30,3.750
1764974978.3952146,0,0,36,4.500
1764974978.399268,0,0,36,4.500
1764974978.4084187,0,0,22,2.750
1764974978.4112432,0,0,31,3.875
1764974978.4152658,0,0,35,4.375
1764974978.419223,0,0,35,4.375
1764974978.4232159,1,1,30,3.750
1764974978.427217,0,0,20,2.500
1764974978.4312694,0,0,29,3.625
1764974978.4352262,0,0,35,4.375
1764974978.439219,0,0,35,4.375
1764974978.4432135,1,1,31,3.875
1764974978.4472132,0,0,21,2.625
1764974978.4512203,0,0,30,3.750
1764974978.4552162,0,0,35,4.375
1764974978.4592633,0,0,36,4.500
1764974978.4632576,1,1,32,4.000
1764974978.467234,0,0,22,2.750
1764974978.4712238,0,0,30,3.750
1764974978.4752192,0,0,36,4.500
1764974978.4792275,0,0,36,4.500
1764974978.4832294,1,1,32,4.000
1764974978.4872282,0,0,22,2.750
1764974978.4912705,0,0,30,3.750
1764974978.495237,0,0,36,4.500
1764974978.499235,0,0,37,4.625
1764974978.5032141,1,1,32,4.000
1764974978.5072138,0,0,22,2.750
1764974978.5112317,0,0,29,3.625
1764974978.5152736,0,0,36,4.500
1764974978.5192363,0,0,36,4.500
1764974978.5232759,1,1,33,4.125
1764974978.5272353,0,0,22,2.750
1764974978.5312212,0,0,29,3.625
1764974978.535216,0,0,35,4.375
1764974978.5392287,0,0,36,4.500
1764974978.5432327,1,1,33,4.125
1764974978.5472288,0,0,22,2.750
1764974978.5512226,0,0,28,3.500
1764974978.5552714,0,0,35,4.375
1764974978.559234,0,0,36,4.500
1764974978.5632184,1,1,34,4.250
1764974978.5672164,0,0,23,2.875
1764974978.571231,0,0,28,3.500
1764974978.5752287,0,0,35,4.375
1764974978.5792375,0,0,36,4.500
1764974978.5832162,1,1,34,4.250
1764974978.5872161,0,0,23,2.875
1764974978.591222,0,0,28,3.500
1764974978.595214,0,0,36,4.500
1764974978.5992126,0,0,37,4.625
1764974978.603212,1,1,34,4.250
1764974978.6072936,0,0,23,2.875
1764974978.61124,0,0,27,3.375
1764974978.6152508,0,0,34,4.250
1764974978.6192217,0,0,36,4.500
1764974978.623223,1,1,33,4.125
1764974978.6272259,0,0,23,2.875
1764974978.631235,0,0,35,4.375
1764974978.6352167,0,0,37,4.625
1764974978.6392243,0,0,34,4.250
1764974978.643231,1,1,24,3.000
1764974978.6472301,0,0,27,3.375
1764974978.65123,0,0,35,4.375
1764974978.6552265,0,0,37,4.625
1764974978.659235,0,0,35,4.375
1764974978.6632118,1,1,25,3.125
1764974978.6672146,0,0,26,3.250
1764974978.6712353,0,0,35,4.375
1764974978.675231,0,0,36,4.500
1764974978.679232,0,0,35,4.375
1764974978.6832128,1,1,26,3.250
1764974978.6872125,0,0,28,3.500
1764974978.6912344,0,0,35,4.375
1764974978.6952298,0,0,37,4.625
1764974978.6992304,0,0,34,4.250
1764974978.7032104,1,1,23,2.875
1764974978.7072132,0,0,24,3.000
1764974978.7112303,0,0,34,4.250
1764974978.715264,0,0,37,4.625
1764974978.7192304,0,0,35,4.375
1764974978.7232127,1,1,25,3.125
1764974978.72721,0,0,26,3.250
1764974978.7312236,0,0,34,4.250
1764974978.7352252,0,0,36,4.500
1764974978.739234,0,0,35,4.375
1764974978.743224,1,1,27,3.375
1764974978.7472208,0,0,26,3.250
1764974978.7512283,0,0,35,4.375
1764974978.7552266,0,0,37,4.625
1764974978.7592273,0,0,36,4.500
1764974978.7632234,1,1,27,3.375
1764974978.767222,0,0,26,3.250
1764974978.7712243,0,0,35,4.375
1764974978.7752259,0,0,37,4.625
1764974978.7792313,0,0,36,4.500
1764974978.7832248,1,1,27,3.375
1764974978.787224,0,0,25,3.125
1764974978.794695,0,0,37,4.625
1764974978.7965972,0,0,37,4.625
1764974978.7992187,0,0,34,4.250
1764974978.8032146,1,1,27,3.375
1764974978.8072605,0,0,23,2.875
1764974978.8112326,0,0,34,4.250
1764974978.8152497,0,0,37,4.625
1764974978.8192203,0,0,35,4.375
1764974978.8232105,1,1,28,3.500
1764974978.827208,0,0,23,2.875
1764974978.8312073,0,0,34,4.250
1764974978.835209,0,0,37,4.625
1764974978.8392184,0,0,36,4.500
1764974978.843213,1,1,29,3.625
1764974978.84721,0,0,24,3.000
1764974978.8512125,0,0,33,4.125
1764974978.855218,0,0,36,4.500
1764974978.8593423,0,0,36,4.500
1764974978.863459,1,1,29,3.625
1764974978.8680584,0,0,22,2.750
1764974978.8713117,0,0,32,4.000
1764974978.8752234,0,0,37,4.625
1764974978.8792133,0,0,35,4.375
1764974978.8832119,1,1,27,3.375
1764974978.8872073,0,0,20,2.500
1764974978.8912215,0,0,33,4.125
1764974978.8952188,0,0,37,4.625
1764974978.8992274,0,0,37,4.625
1764974978.9032867,1,1,30,3.750
1764974978.9072566,0,0,23,2.875
1764974978.9112241,0,0,34,4.250
1764974978.9152527,0,0,37,4.625
1764974978.9192219,0,0,36,4.500
1764974978.9232235,1,1,30,3.750
1764974978.9272633,0,0,23,2.875
1764974978.931235,0,0,33,4.125
1764974978.9352088,0,0,37,4.625
1764974978.9392207,0,0,37,4.625
1764974978.9432232,1,1,32,4.000
1764974978.9472213,0,0,23,2.875
1764974978.951214,0,0,34,4.250
1764974978.9552064,0,0,38,4.750
1764974978.9592748,0,0,38,4.750
1764974978.9632401,1,1,33,4.125
1764974978.9672227,0,0,25,3.125
1764974978.9712124,0,0,33,4.125
1764974978.9752054,0,0,38,4.750
1764974978.9792137,0,0,38,4.750
1764974978.983222,1,1,32,4.000
1764974978.9872203,0,0,25,3.125
1764974978.9912167,0,0,33,4.125
1764974978.9952059,0,0,37,4.625
1764974978.999218,0,0,37,4.625
1764974979.0032887,1,1,32,4.000
1764974979.007305,0,0,23,2.875
1764974979.0112326,0,0,33,4.125
1764974979.0152504,0,0,37,4.625
1764974979.0192158,0,0,36,4.500
1764974979.0233135,1,1,31,3.875
1764974979.0272374,0,0,20,2.500
1764974979.0312223,0,0,31,3.875
1764974979.0352118,0,0,37,4.625
1764974979.0392113,0,0,36,4.500
1764974979.0432189,1,1,32,4.000
1764974979.047221,0,0,21,2.625
1764974979.0512147,0,0,31,3.875
1764974979.0552084,0,0,36,4.500
1764974979.0592084,0,0,38,4.750
1764974979.063206,1,1,33,4.125
1764974979.0672066,0,0,23,2.875
1764974979.0712218,0,0,32,4.000
1764974979.0752282,0,0,37,4.625
1764974979.0792258,0,0,36,4.500
1764974979.0832052,1,1,33,4.125
1764974979.0872033,0,0,23,2.875
1764974979.0912232,0,0,31,3.875
1764974979.0952172,0,0,36,4.500
1764974979.099226,0,0,36,4.500
1764974979.103206,1,1,33,4.125
1764974979.1072056,0,0,23,2.875
1764974979.1112165,0,0,31,3.875
1764974979.1152577,0,0,37,4.625
1764974979.1192248,0,0,37,4.625
1764974979.1232207,1,1,34,4.250
1764974979.1272185,0,0,22,2.750
1764974979.1312187,0,0,30,3.750
1764974979.1352181,0,0,36,4.500
1764974979.1392295,0,0,37,4.625
1764974979.1432223,1,1,33,4.125
1764974979.1472175,0,0,23,2.875
1764974979.1512191,0,0,30,3.750
1764974979.1552184,0,0,35,4.375
1764974979.159224,0,0,36,4.500
1764974979.1632197,1,1,33,4.125
1764974979.1672173,0,0,22,2.750
1764974979.1712165,0,0,28,3.500
1764974979.1752136,0,0,35,4.375
1764974979.1792226,0,0,36,4.500
1764974979.1832192,1,1,33,4.125
1764974979.1872199,0,0,22,2.750
1764974979.1912172,0,0,29,3.625
1764974979.1952143,0,0,36,4.500
1764974979.1992223,0,0,36,4.500
1764974979.2032194,1,1,34,4.250
1764974979.2073,0,0,23,2.875
1764974979.2112212,0,0,29,3.625
1764974979.2152224,0,0,37,4.625
1764974979.219214,0,0,38,4.750
1764974979.2232215,1,1,33,4.125
1764974979.22722,0,0,21,2.625
1764974979.2312143,0,0,27,3.375
1764974979.2352047,0,0,36,4.500
1764974979.2392116,0,0,38,4.750
1764974979.2432077,1,1,34,4.250
1764974979.2472064,0,0,28,3.500
1764974979.2512212,0,0,36,4.500
1764974979.2552152,0,0,37,4.625
1764974979.2592196,0,0,35,4.375
1764974979.263236,1,1,25,3.125
1764974979.267222,0,0,28,3.500
1764974979.2712128,0,0,36,4.500
1764974979.2752044,0,0,38,4.750
1764974979.279208,0,0,35,4.375
1764974979.2832153,1,1,25,3.125
1764974979.2872167,0,0,29,3.625
1764974979.291209,0,0,36,4.500
1764974979.2952032,0,0,37,4.625
1764974979.2992105,0,0,35,4.375
1764974979.303216,1,1,25,3.125
1764974979.3072174,0,0,27,3.375
1764974979.3112187,0,0,35,4.375
1764974979.315232,0,0,37,4.625
1764974979.3192182,0,0,35,4.375
1764974979.3232157,1,1,26,3.250
1764974979.3272154,0,0,27,3.375
1764974979.3312159,0,0,35,4.375
1764974979.3352149,0,0,37,4.625
1764974979.3392208,0,0,36,4.500
1764974979.3432155,1,1,26,3.250
1764974979.347215,0,0,26,3.250
1764974979.351212,0,0,36,4.500
1764974979.3552036,0,0,37,4.625
1764974979.3592088,0,0,35,4.375
1764974979.363214,1,1,26,3.250
1764974979.3672128,0,0,25,3.125
1764974979.3712137,0,0,35,4.375
1764974979.375213,0,0,38,4.750
1764974979.3792226,0,0,36,4.500
1764974979.3832138,1,1,26,3.250
1764974979.3872135,0,0,25,3.125
1764974979.3912163,0,0,35,4.375
1764974979.3952143,0,0,37,4.625
1764974979.3992195,0,0,36,4.500
1764974979.403216,1,1,26,3.250
1764974979.4120898,0,0,35,4.375
1764974979.4152732,0,0,37,4.625
1764974979.4192324,0,0,35,4.375
1764974979.4232054,1,1,25,3.125
1764974979.4272027,0,0,23,2.875
1764974979.431213,0,0,34,4.250
1764974979.4352133,0,0,37,4.625
1764974979.439219,0,0,35,4.375
1764974979.4432049,1,1,27,3.375
1764974979.4472024,0,0,23,2.875
1764974979.4512181,0,0,34,4.250
1764974979.4552093,0,0,37,4.625
1764974979.459221,0,0,35,4.375
1764974979.4632156,1,1,27,3.375
1764974979.467217,0,0,23,2.875
1764974979.4712322,0,0,34,4.250
1764974979.4752164,0,0,36,4.500
1764974979.4792173,0,0,35,4.375
1764974979.4832008,1,1,27,3.375
1764974979.4872005,0,0,21,2.625
1764974979.491214,0,0,33,4.125
1764974979.495208,0,0,37,4.625
1764974979.4992094,0,0,36,4.500
1764974979.5032022,1,1,27,3.375
1764974979.5072021,0,0,22,2.750
1764974979.5112135,0,0,33,4.125
1764974979.5152278,0,0,37,4.625
1764974979.5192163,0,0,36,4.500
1764974979.5232167,1,1,28,3.500
1764974979.5272143,0,0,21,2.625
1764974979.531214,0,0,33,4.125
1764974979.5352085,0,0,37,4.625
1764974979.539216,0,0,35,4.375
1764974979.543213,1,1,29,3.625
1764974979.5472167,0,0,21,2.625
1764974979.5512152,0,0,32,4.000
1764974979.5552115,0,0,37,4.625
1764974979.559214,0,0,35,4.375
1764974979.5632117,1,1,29,3.625
1764974979.5672145,0,0,21,2.625
1764974979.5712113,0,0,32,4.000
1764974979.575211,0,0,37,4.625
1764974979.5792177,0,0,36,4.500
1764974979.5832121,1,1,29,3.625
1764974979.5872138,0,0,21,2.625
1764974979.5912154,0,0,33,4.125
1764974979.5952122,0,0,37,4.625
1764974979.5992062,0,0,36,4.500
1764974979.6031983,1,1,29,3.625
1764974979.6071978,0,0,21,2.625
1764974979.6113048,0,0,32,4.000
1764974979.6152625,0,0,36,4.500
1764974979.6192245,0,0,36,4.500
1764974979.6232002,1,1,30,3.750
1764974979.6272,0,0,20,2.500
1764974979.6312153,0,0,31,3.875
1764974979.6352127,0,0,36,4.500
1764974979.639216,0,0,36,4.500
1764974979.643201,1,1,29,3.625
1764974979.6471984,0,0,19,2.375
1764974979.6512163,0,0,30,3.750
1764974979.6552107,0,0,36,4.500
1764974979.65922,0,0,35,4.375
1764974979.6632133,1,1,31,3.875
1764974979.6672118,0,0,21,2.625
1764974979.6712081,0,0,31,3.875
1764974979.67522,0,0,36,4.500
1764974979.6792183,0,0,36,4.500
1764974979.6831992,1,1,32,4.000
1764974979.6871943,0,0,22,2.750
1764974979.6912105,0,0,31,3.875
1764974979.6952095,0,0,37,4.625
1764974979.6992157,0,0,36,4.500
1764974979.7031972,1,1,30,3.750
1764974979.7071962,0,0,18,2.250
1764974979.711208,0,0,30,3.750
1764974979.715209,0,0,36,4.500
1764974979.7192185,0,0,36,4.500
1764974979.7232006,1,1,31,3.875
1764974979.7271981,0,0,18,2.250
1764974979.7312095,0,0,29,3.625
1764974979.7352057,0,0,36,4.500
1764974979.7392151,0,0,37,4.625
1764974979.7431986,1,1,32,4.000
1764974979.7471998,0,0,20,2.500
1764974979.7512064,0,0,29,3.625
1764974979.7552075,0,0,37,4.625
1764974979.759212,0,0,36,4.500
1764974979.7632134,1,1,32,4.000
1764974979.767211,0,0,20,2.500
1764974979.7712097,0,0,29,3.625
1764974979.7752044,0,0,37,4.625
1764974979.7792103,0,0,37,4.625
1764974979.783213,1,1,32,4.000
1764974979.7872107,0,0,18,2.250
1764974979.7914438,0,0,27,3.375
1764974979.795435,0,0,35,4.375
1764974979.7992275,0,0,36,4.500
1764974979.803213,1,1,32,4.000
1764974979.8072088,0,0,18,2.250
1764974979.8112867,0,0,27,3.375
1764974979.8152094,0,0,36,4.500
1764974979.8192449,0,0,36,4.500
1764974979.823209,1,1,32,4.000
1764974979.8272092,0,0,17,2.125
1764974979.831213,0,0,26,3.250
1764974979.8352087,0,0,36,4.500
1764974979.8392115,0,0,37,4.625
1764974979.8431964,1,1,33,4.125
1764974979.8471992,0,0,20,2.500
1764974979.851204,0,0,27,3.375
1764974979.8551986,0,0,36,4.500
1764974979.8592074,0,0,33,4.125
1764974979.8632317,1,1,19,2.375
1764974979.8672128,0,0,25,3.125
1764974979.8712068,0,0,35,4.375
1764974979.8751967,0,0,37,4.625
1764974979.8792067,0,0,32,4.000
1764974979.883211,1,1,19,2.375
1764974979.8872082,0,0,25,3.125
1764974979.8911984,0,0,35,4.375
1764974979.8951943,0,0,36,4.500
1764974979.899209,0,0,33,4.125
1764974979.9032123,1,1,19,2.375
1764974979.9072087,0,0,24,3.000
1764974979.91121,0,0,35,4.375
1764974979.9152079,0,0,38,4.750
1764974979.919242,0,0,34,4.250
1764974979.9232087,1,1,18,2.250
1764974979.9272072,0,0,23,2.875
1764974979.931206,0,0,35,4.375
1764974979.935207,0,0,37,4.625
1764974979.9392157,0,0,33,4.125
1764974979.9432096,1,1,18,2.250
1764974979.9472072,0,0,22,2.750
1764974979.9512079,0,0,34,4.250
1764974979.9552069,0,0,37,4.625
1764974979.9592118,0,0,34,4.250
1764974979.9632092,1,1,20,2.500
1764974979.9672065,0,0,23,2.875
1764974979.9712036,0,0,35,4.375
1764974979.975203,0,0,37,4.625
1764974979.9792144,0,0,34,4.250
1764974979.983208,1,1,18,2.250
1764974979.987207,0,0,20,2.500
1764974979.9912057,0,0,33,4.125
1764974979.995203,0,0,37,4.625
1764974979.999211,0,0,33,4.125
1764974980.0032084,1,1,17,2.125
1764974980.0072098,0,0,18,2.250
1764974980.011286,0,0,34,4.250
1764974980.0152183,0,0,37,4.625
1764974980.0192473,0,0,33,4.125
1764974980.0231993,1,1,18,2.250
1764974980.0271974,0,0,17,2.125
1764974980.031208,0,0,32,4.000
1764974980.0352037,0,0,37,4.625
1764974980.039204,0,0,34,4.250
1764974980.0431948,1,1,19,2.375
1764974980.0471935,0,0,15,1.875
1764974980.05121,0,0,32,4.000
1764974980.0552037,0,0,37,4.625
1764974980.059212,0,0,35,4.375
1764974980.0632064,1,1,22,2.750
1764974980.0672135,0,0,18,2.250
1764974980.0712004,0,0,34,4.250
1764974980.0751915,0,0,38,4.750
1764974980.079198,0,0,36,4.500
1764974980.0832052,1,1,22,2.750
1764974980.0872064,0,0,17,2.125
1764974980.0911977,0,0,33,4.125
1764974980.095193,0,0,38,4.750
1764974980.099194,0,0,35,4.375
1764974980.103194,1,1,22,2.750
1764974980.1071918,0,0,16,2.000
1764974980.1112058,0,0,33,4.125
1764974980.1152034,0,0,38,4.750
1764974980.1192226,0,0,35,4.375
1764974980.123193,1,1,22,2.750
1764974980.1271935,0,0,15,1.875
1764974980.1312137,0,0,33,4.125
1764974980.1352024,0,0,38,4.750
1764974980.1392074,0,0,36,4.500
1764974980.143205,1,1,24,3.000
1764974980.147204,0,0,15,1.875
1764974980.1512067,0,0,32,4.000
1764974980.1552017,0,0,38,4.750
1764974980.1592083,0,0,35,4.375
1764974980.163203,1,1,23,2.875
1764974980.167201,0,0,14,1.750
1764974980.1712017,0,0,32,4.000
1764974980.1752012,0,0,38,4.750
1764974980.1792102,0,0,36,4.500
1764974980.1832023,1,1,24,3.000
1764974980.1872017,0,0,15,1.875
1764974980.1912043,0,0,32,4.000
1764974980.1952002,0,0,38,4.750
1764974980.1992083,0,0,36,4.500
1764974980.2032058,1,1,26,3.250
1764974980.207203,0,0,13,1.625
1764974980.2112844,0,0,32,4.000
1764974980.2152166,0,0,38,4.750
1764974980.2192442,0,0,38,4.750
1764974980.2231948,1,1,27,3.375
1764974980.2271886,0,0,14,1.750
1764974980.2312028,0,0,31,3.875
1764974980.2352045,0,0,38,4.750
1764974980.239207,0,0,36,4.500
1764974980.2431908,1,1,26,3.250
1764974980.2471879,0,0,12,1.500
1764974980.2511928,0,0,31,3.875
1764974980.2551901,0,0,39,4.875
1764974980.259203,0,0,38,4.750
1764974980.2632172,1,1,30,3.750
1764974980.267209,0,0,15,1.875
1764974980.2712004,0,0,32,4.000
1764974980.2751892,0,0,39,4.875
1764974980.2791963,0,0,38,4.750
1764974980.2831938,1,1,29,3.625
1764974980.2871926,0,0,12,1.500
1764974980.29119,0,0,31,3.875
1764974980.2951884,0,0,39,4.875
1764974980.2991984,0,0,39,4.875
1764974980.303205,1,1,29,3.625
1764974980.3072023,0,0,13,1.625
1764974980.3112032,0,0,30,3.750
1764974980.3151987,0,0,39,4.875
1764974980.3192189,0,0,38,4.750
1764974980.323202,1,1,30,3.750
1764974980.327203,0,0,14,1.750
1764974980.3312,0,0,30,3.750
1764974980.335198,0,0,38,4.750
1764974980.339204,0,0,38,4.750
1764974980.3432035,1,1,29,3.625
1764974980.347203,0,0,13,1.625
1764974980.3511932,0,0,29,3.625
1764974980.3551867,0,0,39,4.875
1764974980.35919,0,0,39,4.875
1764974980.3632019,1,1,30,3.750
1764974980.367202,0,0,11,1.375
1764974980.3711977,0,0,28,3.500
1764974980.3751981,0,0,39,4.875
1764974980.3792048,0,0,39,4.875
1764974980.3831992,1,1,30,3.750
1764974980.3871996,0,0,12,1.500
1764974980.3912022,0,0,28,3.500
1764974980.3952,0,0,38,4.750
1764974980.3992014,0,0,38,4.750
1764974980.403198,1,1,31,3.875
1764974980.4071987,0,0,13,1.625
1764974980.416085,0,0,40,5.000
1764974980.4193263,0,0,40,5.000
1764974980.4231944,1,1,31,3.875
1764974980.4271877,0,0,13,1.625
1764974980.431204,0,0,26,3.250
1764974980.4352021,0,0,37,4.625
1764974980.4392064,0,0,38,4.750
1764974980.4431868,1,1,31,3.875
1764974980.4471877,0,0,11,1.375
1764974980.451205,0,0,25,3.125
1764974980.4552004,0,0,37,4.625
1764974980.4592085,0,0,38,4.750
1764974980.4632034,1,1,31,3.875
1764974980.467199,0,0,7,0.875
1764974980.4712029,0,0,37,4.625
1764974980.4752004,0,0,39,4.875
1764974980.4792097,0,0,33,4.125
1764974980.4832082,1,1,13,1.625
1764974980.4872003,0,0,24,3.000
1764974980.4911904,0,0,37,4.625
1764974980.4951909,0,0,39,4.875
1764974980.4991992,0,0,33,4.125
1764974980.503202,1,1,14,1.750
1764974980.5071988,0,0,25,3.125
1764974980.5111923,0,0,38,4.750
1764974980.5151877,0,0,40,5.000
1764974980.5192115,0,0,34,4.250
1764974980.5232038,1,1,16,2.000
1764974980.5272024,0,0,25,3.125
1764974980.5311959,0,0,38,4.750
1764974980.5351949,0,0,40,5.000
1764974980.539203,0,0,34,4.250
1764974980.5432012,1,1,15,1.875
1764974980.5472014,0,0,23,2.875
1764974980.5511994,0,0,38,4.750
1764974980.5551932,0,0,40,5.000
1764974980.559204,0,0,34,4.250
1764974980.5632012,1,1,12,1.500
1764974980.5672004,0,0,21,2.625
1764974980.571193,0,0,37,4.625
1764974980.5751941,0,0,40,5.000
1764974980.579204,0,0,35,4.375
1764974980.583201,1,1,16,2.000
1764974980.5871985,0,0,21,2.625
1764974980.5912004,0,0,37,4.625
1764974980.5951939,0,0,40,5.000
1764974980.5992,0,0,35,4.375
1764974980.6031876,1,1,16,2.000
1764974980.607186,0,0,19,2.375
1764974980.611199,0,0,37,4.625
1764974980.6152809,0,0,41,5.125
1764974980.6192603,0,0,36,4.500
1764974980.62319,1,1,16,2.000
1764974980.6271899,0,0,19,2.375
1764974980.6312037,0,0,37,4.625
1764974980.6351964,0,0,42,5.250
1764974980.639202,0,0,38,4.750
1764974980.6431873,1,1,21,2.625
1764974980.647185,0,0,22,2.750
1764974980.6512003,0,0,38,4.750
1764974980.6551979,0,0,41,5.125
1764974980.6592033,0,0,37,4.625
1764974980.6632028,1,1,19,2.375
1764974980.6672058,0,0,19,2.375
1764974980.6711912,0,0,36,4.500
1764974980.6751895,0,0,41,5.125
1764974980.6791925,0,0,36,4.500
1764974980.683199,1,1,20,2.500
1764974980.6871963,0,0,17,2.125
1764974980.6911893,0,0,36,4.500
1764974980.6951861,0,0,40,5.000
1764974980.6991956,0,0,36,4.500
1764974980.7031975,1,1,19,2.375
1764974980.7071931,0,0,16,2.000
1764974980.711198,0,0,35,4.375
1764974980.7151961,0,0,40,5.000
1764974980.719215,0,0,35,4.375
1764974980.7231946,1,1,17,2.125
1764974980.727195,0,0,12,1.500
1764974980.7311938,0,0,34,4.250
1764974980.7351947,0,0,40,5.000
1764974980.7392018,0,0,37,4.625
1764974980.7431982,1,1,19,2.375
1764974980.7471955,0,0,13,1.625
1764974980.7511969,0,0,35,4.375
1764974980.7551897,0,0,40,5.000
1764974980.7592003,0,0,38,4.750
1764974980.7631865,1,1,22,2.750
1764974980.7671819,0,0,14,1.750
1764974980.7711954,0,0,34,4.250
1764974980.775195,0,0,41,5.125
1764974980.7792017,0,0,38,4.750
1764974980.7831974,1,1,21,2.625
1764974980.7871907,0,0,12,1.500
1764974980.7914143,0,0,33,4.125
1764974980.795415,0,0,40,5.000
1764974980.7992196,0,0,37,4.625
1764974980.8031974,1,1,22,2.750
1764974980.8071966,0,0,12,1.500
1764974980.8111894,0,0,33,4.125
1764974980.8152928,0,0,40,5.000
1764974980.819218,0,0,38,4.750
1764974980.8232403,1,1,23,2.875
1764974980.8272004,0,0,11,1.375
1764974980.8311958,0,0,33,4.125
1764974980.83519,0,0,40,5.000
1764974980.839199,0,0,38,4.750
1764974980.8431861,1,1,25,3.125
1764974980.8471842,0,0,12,1.500
1764974980.8514001,0,0,33,4.125
1764974980.855193,0,0,41,5.125
1764974980.8591864,0,0,39,4.875
1764974980.86319,1,1,26,3.250
1764974980.867192,0,0,10,1.250
1764974980.8711853,0,0,33,4.125
1764974980.8751829,0,0,40,5.000
1764974980.8791835,0,0,38,4.750
1764974980.8831837,1,1,25,3.125
1764974980.8871822,0,0,9,1.125
1764974980.891185,0,0,31,3.875
1764974980.895181,0,0,39,4.875
1764974980.899183,0,0,37,4.625
1764974980.9031823,1,1,25,3.125
1764974980.9071827,0,0,7,0.875
1764974980.9111946,0,0,31,3.875
1764974980.9151833,0,0,40,5.000
1764974980.919186,0,0,39,4.875
1764974980.9232347,1,1,26,3.250
1764974980.9271965,0,0,7,0.875
1764974980.931196,0,0,30,3.750
1764974980.9351928,0,0,40,5.000
1764974980.9391992,0,0,39,4.875
1764974980.9431922,1,1,28,3.500
1764974980.9471953,0,0,10,1.250
1764974980.9511962,0,0,30,3.750
1764974980.9551902,0,0,41,5.125
1764974980.9591982,0,0,40,5.000
1764974980.963193,1,1,30,3.750
1764974980.9671924,0,0,12,1.500
1764974980.9711874,0,0,31,3.875
1764974980.9751918,0,0,40,5.000
1764974980.979202,0,0,40,5.000
1764974980.9831913,1,1,31,3.875
1764974980.987191,0,0,12,1.500
1764974980.9911954,0,0,31,3.875
1764974980.9951925,0,0,41,5.125
1764974980.9991984,0,0,40,5.000
1764974981.0031905,1,1,30,3.750
1764974981.0071929,0,0,11,1.375
1764974981.0111897,0,0,29,3.625
1764974981.0152693,0,0,40,5.000
1764974981.0192227,0,0,39,4.875
1764974981.0232248,1,1,29,3.625
1764974981.027182,0,0,8,1.000
1764974981.031192,0,0,28,3.500
1764974981.0351906,0,0,40,5.000
1764974981.0391967,0,0,40,5.000
1764974981.0431836,1,1,29,3.625
1764974981.0471783,0,0,9,1.125
1764974981.0511951,0,0,27,3.375
1764974981.0551906,0,0,40,5.000
1764974981.0591972,0,0,41,5.125
1764974981.0631955,1,1,32,4.000
1764974981.067196,0,0,10,1.250
1764974981.0711915,0,0,28,3.500
1764974981.0751872,0,0,40,5.000
1764974981.0791976,0,0,41,5.125
1764974981.0832164,1,1,11,1.375
1764974981.0872016,0,0,28,3.500
1764974981.0911837,0,0,40,5.000
1764974981.0951793,0,0,41,5.125
1764974981.0991826,0,0,33,4.125
1764974981.1031823,1,1,10,1.250
1764974981.1071825,0,0,25,3.125
1764974981.1111805,0,0,38,4.750
1764974981.1151788,0,0,40,5.000
1764974981.119184,0,0,32,4.000
1764974981.1232123,1,1,9,1.125
1764974981.127193,0,0,24,3.000
1764974981.131191,0,0,39,4.875
1764974981.1351871,0,0,41,5.125
1764974981.139198,0,0,34,4.250
1764974981.1431928,1,1,12,1.500
1764974981.1471934,0,0,25,3.125
1764974981.151193,0,0,39,4.875
1764974981.1551867,0,0,42,5.250
1764974981.1591945,0,0,34,4.250
1764974981.1631892,1,1,11,1.375
1764974981.167192,0,0,24,3.000
1764974981.1711912,0,0,39,4.875
1764974981.1751873,0,0,41,5.125
1764974981.1791952,0,0,35,4.375
1764974981.1831903,1,1,12,1.500
1764974981.1871886,0,0,23,2.875
1764974981.1911929,0,0,39,4.875
1764974981.1951907,0,0,41,5.125
1764974981.1991878,0,0,35,4.375
1764974981.203189,1,1,13,1.625
1764974981.20719,0,0,23,2.875
1764974981.2111895,0,0,39,4.875
1764974981.2152658,0,0,41,5.125
1764974981.2192113,0,0,35,4.375
1764974981.2232177,1,1,14,1.750
1764974981.2271786,0,0,23,2.875
1764974981.2311914,0,0,39,4.875
1764974981.2351897,0,0,41,5.125
1764974981.2391946,0,0,34,4.250
1764974981.2431788,1,1,9,1.125
1764974981.2471774,0,0,17,2.125
1764974981.2511952,0,0,37,4.625
1764974981.2551901,0,0,41,5.125
1764974981.2591987,0,0,35,4.375
1764974981.2631896,1,1,13,1.625
1764974981.267194,0,0,19,2.375
1764974981.2711918,0,0,38,4.750
1764974981.2751825,0,0,42,5.250
1764974981.2791882,0,0,38,4.750
1764974981.2831936,1,1,20,2.500
1764974981.2871883,0,0,24,3.000
1764974981.291182,0,0,39,4.875
1764974981.2951763,0,0,43,5.375
1764974981.2991855,0,0,39,4.875
1764974981.3031912,1,1,22,2.750
1764974981.3071902,0,0,23,2.875
1764974981.311188,0,0,39,4.875
1764974981.3151863,0,0,43,5.375
1764974981.3191915,0,0,38,4.750
1764974981.323193,1,1,17,2.125
1764974981.3271751,0,0,18,2.250
1764974981.3311863,0,0,37,4.625
1764974981.3351836,0,0,42,5.250
1764974981.3391955,0,0,37,4.625
1764974981.3431914,1,1,18,2.250
1764974981.3471882,0,0,16,2.000
1764974981.351181,0,0,36,4.500
1764974981.3551745,0,0,42,5.250
1764974981.3591821,0,0,38,4.750
1764974981.3631885,1,1,18,2.250
1764974981.367188,0,0,15,1.875
1764974981.3711846,0,0,36,4.500
1764974981.3751836,0,0,41,5.125
1764974981.37919,0,0,37,4.625
1764974981.3831894,1,1,17,2.125
1764974981.3871922,0,0,12,1.500
1764974981.3911915,0,0,35,4.375
1764974981.3951826,0,0,40,5.000
1764974981.3991911,0,0,37,4.625
1764974981.4031909,1,1,15,1.875
1764974981.407189,0,0,8,1.000
1764974981.4111853,0,0,34,4.250
1764974981.4201663,1,1,37,4.625
1764974981.423255,1,1,17,2.125
1764974981.427194,0,0,7,0.875
1764974981.4311907,0,0,33,4.125
1764974981.4351778,0,0,41,5.125
1764974981.439186,0,0,36,4.500
1764974981.4431946,1,1,16,2.000
1764974981.4471953,0,0,4,0.500
1764974981.4511828,0,0,32,4.000
1764974981.455179,0,0,40,5.000
1764974981.4591894,0,0,37,4.625
1764974981.4631908,1,1,17,2.125
1764974981.4671943,0,0,3,0.375
1764974981.4711983,0,0,32,4.000
1764974981.4751945,0,0,41,5.125
1764974981.4791975,0,0,38,4.750
1764974981.4831965,1,1,21,2.625
1764974981.4871955,0,0,7,0.875
1764974981.491187,0,0,33,4.125
1764974981.4951787,0,0,42,5.250
1764974981.4991908,0,0,39,4.875
1764974981.50319,1,1,22,2.750
1764974981.50719,0,0,6,0.750
1764974981.5111856,0,0,33,4.125
1764974981.5151782,0,0,42,5.250
1764974981.5191877,0,0,39,4.875
1764974981.5232284,1,1,23,2.875
1764974981.5271878,0,0,5,0.625
1764974981.531191,0,0,32,4.000
1764974981.535191,0,0,41,5.125
1764974981.5391963,0,0,39,4.875
1764974981.5431898,1,1,21,2.625
1764974981.5471866,0,0,0,0.000
1764974981.5511885,0,0,30,3.750
1764974981.5551932,0,0,42,5.250
1764974981.5591972,0,0,40,5.000
1764974981.563188,1,1,23,2.875
1764974981.5671864,0,0,2,0.250
1764974981.571189,0,0,30,3.750
1764974981.5751896,0,0,41,5.125
1764974981.5792,0,0,40,5.000
1764974981.583189,1,1,23,2.875
1764974981.5871882,0,0,0,0.000
1764974981.5911913,0,0,29,3.625
1764974981.5951874,0,0,42,5.250
1764974981.5991938,0,0,40,5.000
1764974981.6031752,1,1,26,3.250
1764974981.6071732,0,0,4,0.500
1764974981.6111875,0,0,31,3.875
1764974981.6151867,0,0,41,5.125
1764974981.619275,0,0,40,5.000
1764974981.6232405,1,1,26,3.250
1764974981.62719,0,0,1,0.125
1764974981.6311848,0,0,29,3.625
1764974981.6351755,0,0,42,5.250
1764974981.6391857,0,0,42,5.250
1764974981.6431918,1,1,29,3.625
1764974981.64719,0,0,5,0.625
1764974981.6511793,0,0,29,3.625
1764974981.6551707,0,0,42,5.250
1764974981.6591833,0,0,41,5.125
1764974981.6631923,1,1,28,3.500
1764974981.6671925,0,0,3,0.375
1764974981.671198,0,0,29,3.625
1764974981.6751878,0,0,42,5.250
1764974981.6791909,0,0,43,5.375
1764974981.6831775,1,1,31,3.875
1764974981.6871734,0,0,9,1.125
1764974981.6911948,0,0,31,3.875
1764974981.6951866,0,0,43,5.375
1764974981.6991944,0,0,32,4.000
1764974981.7031713,1,1,8,1.000
1764974981.707175,0,0,29,3.625
1764974981.7111933,0,0,42,5.250
1764974981.7151885,0,0,42,5.250
1764974981.7191916,0,0,30,3.750
1764974981.723185,1,1,5,0.625
1764974981.7272885,0,0,26,3.250
1764974981.7312367,0,0,42,5.250
1764974981.7352316,0,0,42,5.250
1764974981.739236,0,0,31,3.875
1764974981.7432258,1,1,1,0.125
1764974981.747234,0,0,25,3.125
1764974981.7512374,0,0,41,5.125
1764974981.7552307,0,0,42,5.250
1764974981.7592356,0,0,30,3.750
1764974981.7632294,1,1,-1,-0.125
1764974981.7672255,0,0,22,2.750
1764974981.7712295,0,0,41,5.125
1764974981.7752285,0,0,43,5.375
1764974981.7792387,0,0,34,4.250
1764974981.7832098,1,1,9,1.125
1764974981.7872097,0,0,27,3.375
1764974981.7914577,0,0,42,5.250
1764974981.7955391,0,0,42,5.250
1764974981.7992568,0,0,35,4.375
1764974981.8032143,1,1,10,1.250
1764974981.8072095,0,0,27,3.375
1764974981.8112156,0,0,42,5.250
1764974981.815212,0,0,44,5.500
1764974981.8192945,0,0,36,4.500
1764974981.8232243,1,1,14,1.750
1764974981.8273017,0,0,27,3.375
1764974981.8311813,0,0,42,5.250
1764974981.8351703,0,0,43,5.375
1764974981.8391838,0,0,37,4.625
1764974981.8431854,1,1,14,1.750
1764974981.847183,0,0,26,3.250
1764974981.8513293,0,0,42,5.250
1764974981.8551726,0,0,44,5.500
1764974981.8591802,0,0,38,4.750
1764974981.863174,1,1,14,1.750
1764974981.8671691,0,0,25,3.125
1764974981.8711731,0,0,41,5.125
1764974981.8751874,0,0,44,5.500
1764974981.8791735,0,0,36,4.500
1764974981.8831737,1,1,13,1.625
1764974981.8871703,0,0,23,2.875
1764974981.8911896,0,0,40,5.000
1764974981.8951857,0,0,44,5.500
1764974981.8991935,0,0,37,4.625
1764974981.903174,1,1,15,1.875
1764974981.9071715,0,0,23,2.875
1764974981.9111898,0,0,40,5.000
1764974981.9151857,0,0,43,5.375
1764974981.9191902,0,0,38,4.750
1764974981.9231846,1,1,17,2.125
1764974981.9272208,0,0,23,2.875
1764974981.9311774,0,0,40,5.000
1764974981.9351685,0,0,43,5.375
1764974981.939181,0,0,38,4.750
1764974981.9431856,1,1,17,2.125
1764974981.9471865,0,0,22,2.750
1764974981.9511902,0,0,40,5.000
1764974981.955186,0,0,44,5.500
1764974981.9591906,0,0,38,4.750
1764974981.9631824,1,1,18,2.250
1764974981.9671838,0,0,21,2.625
1764974981.9711862,0,0,40,5.000
1764974981.9751804,0,0,44,5.500
1764974981.9791908,0,0,38,4.750
1764974981.9831827,1,1,17,2.125
1764974981.9871879,0,0,21,2.625
1764974981.9911885,0,0,39,4.875
1764974981.9951823,0,0,44,5.500
1764974981.999189,0,0,39,4.875
1764974982.0031834,1,1,20,2.500
1764974982.0071852,0,0,20,2.500
1764974982.0111825,0,0,39,4.875
1764974982.0151834,0,0,44,5.500
1764974982.0192728,0,0,39,4.875
1764974982.0231996,1,1,21,2.625
1764974982.027221,0,0,20,2.500
1764974982.0311809,0,0,39,4.875
1764974982.0351715,0,0,44,5.500
1764974982.039183,0,0,39,4.875
1764974982.043183,1,1,21,2.625
1764974982.0471818,0,0,18,2.250
1764974982.051172,0,0,39,4.875
1764974982.0551696,0,0,44,5.500
1764974982.0591824,0,0,39,4.875
1764974982.0631847,1,1,20,2.500
1764974982.0671809,0,0,15,1.875
1764974982.0711896,0,0,38,4.750
1764974982.0751927,0,0,44,5.500
1764974982.0791898,0,0,40,5.000
1764974982.0831683,1,1,22,2.750
1764974982.0871649,0,0,16,2.000
1764974982.0911846,0,0,37,4.625
1764974982.0951838,0,0,43,5.375
1764974982.0991879,0,0,40,5.000
1764974982.1031694,1,1,22,2.750
1764974982.107166,0,0,14,1.750
1764974982.1111856,0,0,37,4.625
1764974982.1151848,0,0,44,5.500
1764974982.1191852,0,0,41,5.125
1764974982.123167,1,1,25,3.125
1764974982.1271796,0,0,16,2.000
1764974982.13118,0,0,37,4.625
1764974982.1351964,0,0,44,5.500
1764974982.1391933,0,0,41,5.125
1764974982.143184,1,1,26,3.250
1764974982.1471844,0,0,16,2.000
1764974982.1511843,0,0,37,4.625
1764974982.1551788,0,0,44,5.500
1764974982.1591878,0,0,41,5.125
1764974982.1631837,1,1,26,3.250
1764974982.167183,0,0,15,1.875
1764974982.171178,0,0,36,4.500
1764974982.1751788,0,0,42,5.250
1764974982.179192,0,0,40,5.000
1764974982.1831808,1,1,24,3.000
1764974982.187181,0,0,10,1.250
1764974982.1911821,0,0,34,4.250
1764974982.1951802,0,0,42,5.250
1764974982.199182,0,0,40,5.000
1764974982.2031653,1,1,26,3.250
1764974982.2071652,0,0,12,1.500
1764974982.2111874,0,0,34,4.250
1764974982.2151814,0,0,42,5.250
1764974982.2192724,0,0,42,5.250
1764974982.2231972,1,1,28,3.500
1764974982.2272253,0,0,14,1.750
1764974982.231178,0,0,35,4.375
1764974982.2351663,0,0,42,5.250
1764974982.2391758,0,0,41,5.125
1764974982.2431812,1,1,29,3.625
1764974982.2471824,0,0,13,1.625
1764974982.251173,0,0,34,4.250
1764974982.2551682,0,0,42,5.250
1764974982.259176,0,0,42,5.250
1764974982.2631836,1,1,31,3.875
1764974982.2671812,0,0,15,1.875
1764974982.2711868,0,0,35,4.375
1764974982.275191,0,0,42,5.250
1764974982.2791867,0,0,41,5.125
1764974982.2831635,1,1,29,3.625
1764974982.2871652,0,0,11,1.375
1764974982.2911682,0,0,33,4.125
1764974982.2951636,0,0,42,5.250
1764974982.2991676,0,0,41,5.125
1764974982.3031623,1,1,29,3.625
1764974982.3071616,0,0,7,0.875
1764974982.3111818,0,0,42,5.250
1764974982.3151846,0,0,41,5.125
1764974982.3191867,0,0,31,3.875
1764974982.3231788,1,1,10,1.250
1764974982.3271952,0,0,31,3.875
1764974982.3311834,0,0,42,5.250
1764974982.3351808,0,0,40,5.000
1764974982.3391876,0,0,30,3.750
1764974982.3431761,1,1,9,1.125
1764974982.347178,0,0,30,3.750
1764974982.3511717,0,0,42,5.250
1764974982.355165,0,0,41,5.125
1764974982.3591664,0,0,28,3.500
1764974982.363165,1,1,3,0.375
1764974982.3671618,0,0,27,3.375
1764974982.3711812,0,0,40,5.000
1764974982.375179,0,0,42,5.250
1764974982.379189,0,0,32,4.000
1764974982.3831794,1,1,10,1.250
1764974982.3871775,0,0,29,3.625
1764974982.391177,0,0,42,5.250
1764974982.395179,0,0,42,5.250
1764974982.3991797,0,0,33,4.125
1764974982.4031792,1,1,10,1.250
1764974982.4071758,0,0,29,3.625
1764974982.4111788,0,0,42,5.250
1764974982.4151764,0,0,44,5.500
1764974982.4245417,0,0,15,1.875
1764974982.4272459,0,0,29,3.625
1764974982.4311836,0,0,40,5.000
1764974982.4351883,0,0,40,5.000
1764974982.4391935,0,0,29,3.625
1764974982.4431715,1,1,1,0.125
1764974982.4471676,0,0,24,3.000
1764974982.4512422,0,0,39,4.875
1764974982.455202,0,0,41,5.125
1764974982.4591978,0,0,30,3.750
1764974982.463187,1,1,2,0.250
1764974982.4671817,0,0,21,2.625
1764974982.4711869,0,0,39,4.875
1764974982.4751775,0,0,42,5.250
1764974982.4791892,0,0,31,3.875
1764974982.4831824,1,1,3,0.375
1764974982.4871807,0,0,21,2.625
1764974982.4911866,0,0,39,4.875
1764974982.4951818,0,0,40,5.000
1764974982.4991794,0,0,31,3.875
1764974982.50318,1,1,2,0.250
1764974982.50718,0,0,21,2.625
1764974982.5111735,0,0,40,5.000
1764974982.515157,0,0,43,5.375
1764974982.5191724,0,0,35,4.375
1764974982.523179,1,1,8,1.000
1764974982.5271955,0,0,23,2.875
1764974982.5311813,0,0,41,5.125
1764974982.5351796,0,0,43,5.375
1764974982.539183,0,0,37,4.625
1764974982.543178,1,1,13,1.625
1764974982.54718,0,0,24,3.000
1764974982.5511847,0,0,41,5.125
1764974982.5551784,0,0,43,5.375
1764974982.5591772,0,0,38,4.750
1764974982.563176,1,1,15,1.875
1764974982.5671747,0,0,26,3.250
1764974982.5711784,0,0,41,5.125
1764974982.57518,0,0,43,5.375
1764974982.5791852,0,0,37,4.625
1764974982.5831766,1,1,14,1.750
1764974982.5871756,0,0,24,3.000
1764974982.5911844,0,0,41,5.125
1764974982.5951777,0,0,44,5.500
1764974982.59918,0,0,37,4.625
1764974982.603159,1,1,15,1.875
1764974982.6071584,0,0,22,2.750
1764974982.6111784,0,0,40,5.000
1764974982.6151764,0,0,43,5.375
1764974982.619183,0,0,38,4.750
1764974982.6232483,0,0,16,2.000
1764974982.627229,0,0,21,2.625
1764974982.6311734,0,0,39,4.875
1764974982.6351764,0,0,43,5.375
1764974982.6391768,0,0,38,4.750
1764974982.6431794,1,1,15,1.875
1764974982.647176,0,0,19,2.375
1764974982.6511657,0,0,39,4.875
1764974982.6551638,0,0,43,5.375
1764974982.659177,0,0,38,4.750
1764974982.6631787,1,1,15,1.875
1764974982.6671739,0,0,18,2.250
1764974982.6711783,0,0,38,4.750
1764974982.675173,0,0,44,5.500
1764974982.6791909,0,0,39,4.875
1764974982.6831832,0,0,19,2.375
1764974982.687177,0,0,21,2.625
1764974982.691163,0,0,39,4.875
1764974982.6951594,0,0,44,5.500
1764974982.6991718,0,0,39,4.875
1764974982.7031777,1,0,19,2.375
1764974982.7071738,0,0,19,2.375
1764974982.7111666,0,0,38,4.750
1764974982.7151587,0,0,43,5.375
1764974982.7191734,0,0,39,4.875
1764974982.7231762,1,0,19,2.375
1764974982.7272117,0,0,18,2.250
1764974982.7311754,0,0,38,4.750
1764974982.7351723,0,0,44,5.500
1764974982.7391775,0,0,41,5.125
1764974982.743173,1,1,23,2.875
1764974982.7471745,0,0,19,2.375
1764974982.7511797,0,0,38,4.750
1764974982.755172,0,0,44,5.500
1764974982.759176,0,0,41,5.125
1764974982.7631729,1,0,24,3.000
1764974982.767173,0,0,19,2.375
1764974982.771172,0,0,38,4.750
1764974982.7751691,0,0,44,5.500
1764974982.7791781,0,1,40,5.000
1764974982.7831702,1,0,23,2.875
1764974982.787174,0,0,17,2.125
1764974982.7946935,0,0,44,5.500
1764974982.7965903,0,0,39,4.875
1764974982.7991667,0,1,39,4.875
1764974982.80316,0,0,20,2.500
1764974982.8071609,0,0,11,1.375
1764974982.8111658,0,0,35,4.375
1764974982.8151608,0,0,43,5.375
1764974982.8191593,0,1,40,5.000
1764974982.8232284,0,0,22,2.750
1764974982.8272142,0,0,11,1.375
1764974982.8311796,0,0,35,4.375
1764974982.835173,0,0,43,5.375
1764974982.839166,1,1,40,5.000
1764974982.8431606,0,0,23,2.875
1764974982.8471577,0,0,10,1.250
1764974982.8511624,0,0,35,4.375
1764974982.8551583,0,0,42,5.250
1764974982.859176,1,1,40,5.000
1764974982.8631747,0,0,24,3.000
1764974982.8671703,0,0,9,1.125
1764974982.8711777,0,0,34,4.250
1764974982.8751743,0,0,42,5.250
1764974982.8791804,1,1,41,5.125
1764974982.8831701,0,0,26,3.250
1764974982.8871706,0,0,11,1.375
1764974982.8911746,0,0,34,4.250
1764974982.8951774,0,0,43,5.375
1764974982.8991885,1,1,41,5.125
1764974982.9031608,0,0,26,3.250
1764974982.9071555,0,0,10,1.250
1764974982.9111717,0,0,34,4.250
1764974982.9151726,0,0,42,5.250
1764974982.9191763,1,1,27,3.375
1764974982.9231567,0,0,9,1.125
1764974982.927191,0,0,33,4.125
1764974982.9311776,0,0,43,5.375
1764974982.9351757,0,0,41,5.125
1764974982.9391842,1,1,27,3.375
1764974982.943176,0,0,8,1.000
1764974982.9471722,0,0,32,4.000
1764974982.9511673,0,0,41,5.125
1764974982.9551556,0,0,40,5.000
1764974982.9591677,1,1,24,3.000
1764974982.963174,0,0,0,0.000
1764974982.9671729,0,0,29,3.625
1764974982.971172,0,0,41,5.125
1764974982.9751687,0,0,40,5.000
1764974982.979176,1,1,27,3.375
1764974982.9831727,0,0,5,0.625
1764974982.9871721,0,0,31,3.875
1764974982.991176,0,0,42,5.250
1764974982.9951708,0,0,41,5.125
1764974982.9991698,1,1,28,3.500
1764974983.0031722,0,0,5,0.625
1764974983.007173,0,0,30,3.750
1764974983.011174,0,0,41,5.125
1764974983.0151694,0,0,40,5.000
1764974983.0191765,1,1,27,3.375
1764974983.023249,0,0,4,0.500
1764974983.0272253,0,0,28,3.500
1764974983.0311744,0,0,41,5.125
1764974983.0351555,0,0,40,5.000
1764974983.0391662,1,1,27,3.375
1764974983.043174,0,0,3,0.375
1764974983.0471725,0,0,28,3.500
1764974983.0511632,0,0,41,5.125
1764974983.055157,0,0,42,5.250
1764974983.059167,1,1,32,4.000
1764974983.0631726,0,0,11,1.375
1764974983.0671692,0,0,30,3.750
1764974983.0711749,0,0,43,5.375
1764974983.075171,0,0,43,5.375
1764974983.0791752,1,1,33,4.125
1764974983.083172,0,0,11,1.375
1764974983.0871756,0,0,29,3.625
1764974983.0911615,0,0,42,5.250
1764974983.0951548,0,0,42,5.250
1764974983.099158,1,1,33,4.125
1764974983.1031563,0,0,9,1.125
1764974983.1071515,0,0,29,3.625
1764974983.1111555,0,0,41,5.125
1764974983.1151576,0,0,42,5.250
1764974983.1191628,1,1,31,3.875
1764974983.1231682,0,0,6,0.750
1764974983.1271648,0,0,26,3.250
1764974983.1311839,0,0,40,5.000
1764974983.1351829,0,0,41,5.125
1764974983.1391819,1,1,32,4.000
1764974983.1431699,0,0,6,0.750
1764974983.1471696,0,0,25,3.125
1764974983.151179,0,0,42,5.250
1764974983.1551702,0,0,43,5.375
1764974983.1591754,1,1,34,4.250
1764974983.1631653,0,0,8,1.000
1764974983.1671674,0,0,25,3.125
1764974983.1711698,0,0,41,5.125
1764974983.1751697,0,0,42,5.250
1764974983.179176,1,1,33,4.125
1764974983.1831713,0,0,5,0.625
1764974983.187168,0,0,23,2.875
1764974983.1911721,0,0,41,5.125
1764974983.1951694,0,0,43,5.375
1764974983.199171,1,1,34,4.250
1764974983.2031708,0,0,7,0.875
1764974983.2071674,0,0,23,2.875
1764974983.2111669,0,0,40,5.000
1764974983.2151675,0,0,42,5.250
1764974983.219172,1,1,34,4.250
1764974983.2232432,0,0,4,0.500
1764974983.2271862,0,0,19,2.375
1764974983.2312036,0,0,39,4.875
1764974983.2351544,0,0,42,5.250
1764974983.2391655,1,1,33,4.125
1764974983.2431724,0,0,4,0.500
1764974983.24717,0,0,18,2.250
1764974983.2511559,0,0,39,4.875
1764974983.255151,0,0,43,5.375
1764974983.259171,1,1,35,4.375
1764974983.263171,0,0,6,0.750
1764974983.2671678,0,0,18,2.250
1764974983.2711694,0,0,39,4.875
1764974983.2751667,0,0,42,5.250
1764974983.2791731,1,1,35,4.375
1764974983.283172,0,0,6,0.750
1764974983.2871742,0,0,16,2.000
1764974983.2911563,0,0,38,4.750
1764974983.2951515,0,0,42,5.250
1764974983.2991636,1,1,34,4.250
1764974983.3031685,0,0,5,0.625
1764974983.3071678,0,0,15,1.875
1764974983.3111606,0,0,38,4.750
1764974983.3151493,0,0,42,5.250
1764974983.3191626,1,1,36,4.500
1764974983.3231711,0,0,10,1.250
1764974983.3271708,0,0,17,2.125
1764974983.3312068,0,0,39,4.875
1764974983.335169,0,0,43,5.375
1764974983.339175,1,1,39,4.875
1764974983.3431678,0,0,16,2.000
1764974983.3471653,0,0,19,2.375
1764974983.3511617,0,0,39,4.875
1764974983.3551548,0,0,43,5.375
1764974983.3591595,1,1,36,4.500
1764974983.3631673,0,0,9,1.125
1764974983.3671694,0,0,11,1.375
1764974983.3711708,0,0,37,4.625
1764974983.3751686,0,0,44,5.500
1764974983.3791733,1,1,37,4.625
1764974983.3831651,0,0,9,1.125
1764974983.3871667,0,0,10,1.250
1764974983.3911731,0,0,37,4.625
1764974983.395168,0,0,43,5.375
1764974983.3991702,1,1,38,4.750
1764974983.4031513,0,0,13,1.625
1764974983.4071484,0,0,12,1.500
1764974983.4111748,0,0,37,4.625
1764974983.4151697,0,0,44,5.500
1764974983.4191768,1,1,39,4.875
1764974983.4280796,0,0,38,4.750
1764974983.4312098,0,0,38,4.750
1764974983.4351764,0,0,42,5.250
1764974983.4391778,1,1,35,4.375
1764974983.443151,0,0,6,0.750
1764974983.4471476,0,0,-1,-0.125
1764974983.4511716,0,0,34,4.250
1764974983.455165,0,0,43,5.375
1764974983.4591746,1,1,39,4.875
1764974983.4631548,0,0,17,2.125
1764974983.4671514,0,0,10,1.250
1764974983.4711695,0,0,37,4.625
1764974983.475169,0,0,44,5.500
1764974983.4791741,1,1,40,5.000
1764974983.4831722,0,0,21,2.625
1764974983.4871802,0,0,13,1.625
1764974983.4911568,0,0,37,4.625
1764974983.4951475,0,0,44,5.500
1764974983.4991665,1,1,40,5.000
1764974983.503169,0,0,21,2.625
1764974983.507166,0,0,10,1.250
1764974983.5111554,0,0,36,4.500
1764974983.51515,0,0,44,5.500
1764974983.5191624,1,1,39,4.875
1764974983.5231695,0,0,19,2.375
1764974983.5271657,0,0,5,0.625
1764974983.5311632,0,0,43,5.375
1764974983.5351632,0,0,41,5.125
1764974983.539172,1,1,20,2.500
1764974983.5431664,0,0,3,0.375
1764974983.5471656,0,0,33,4.125
1764974983.551165,0,0,43,5.375
1764974983.5551634,0,0,41,5.125
1764974983.559163,1,1,22,2.750
1764974983.5631626,0,0,4,0.500
1764974983.567167,0,0,33,4.125
1764974983.5711665,0,0,43,5.375
1764974983.575162,0,0,41,5.125
1764974983.5791633,1,1,24,3.000
1764974983.5831645,0,0,7,0.875
1764974983.5871656,0,0,35,4.375
1764974983.5911689,0,0,44,5.500
1764974983.5951629,0,0,42,5.250
1764974983.599163,1,1,25,3.125
1764974983.6031482,0,0,5,0.625
1764974983.6071498,0,0,34,4.250
1764974983.6111622,0,0,43,5.375
1764974983.615163,0,0,41,5.125
1764974983.6191628,1,1,26,3.250
1764974983.6231596,0,0,6,0.750
1764974983.6272454,0,0,33,4.125
1764974983.631173,0,0,42,5.250
1764974983.6351714,0,0,42,5.250
1764974983.639162,1,1,27,3.375
1764974983.6431649,0,0,8,1.000
1764974983.6471632,0,0,34,4.250
1764974983.6511571,0,0,45,5.625
1764974983.6551504,0,0,43,5.375
1764974983.65916,1,1,28,3.500
1764974983.6631613,0,0,7,0.875
1764974983.667162,0,0,33,4.125
1764974983.671165,0,0,43,5.375
1764974983.6751592,0,0,42,5.250
1764974983.6791682,1,1,29,3.625
1764974983.683159,0,0,8,1.000
1764974983.687158,0,0,33,4.125
1764974983.6911597,0,0,44,5.500
1764974983.6951585,0,0,44,5.500
1764974983.6991699,1,1,32,4.000
1764974983.703161,0,0,12,1.500
1764974983.7071664,0,0,33,4.125
1764974983.7111554,0,0,43,5.375
1764974983.7151463,0,0,42,5.250
1764974983.7191575,1,1,29,3.625
1764974983.723164,0,0,4,0.500
1764974983.7271607,0,0,29,3.625
1764974983.7311468,0,0,43,5.375
1764974983.7351635,0,0,43,5.375
1764974983.7391615,1,1,31,3.875
1764974983.7431617,0,0,8,1.000
1764974983.7471583,0,0,31,3.875
1764974983.751161,0,0,44,5.500
1764974983.7551591,0,0,43,5.375
1764974983.7591643,1,1,33,4.125
1764974983.7631605,0,0,11,1.375
1764974983.7671576,0,0,32,4.000
1764974983.7711585,0,0,43,5.375
1764974983.7751572,0,0,44,5.500
1764974983.7791665,1,1,35,4.375
1764974983.7831593,0,0,15,1.875
1764974983.7871616,0,0,33,4.125
1764974983.7946658,0,0,45,5.625
1764974983.7965558,0,0,45,5.625
1764974983.79915,1,1,34,4.250
1764974983.803148,0,0,12,1.500
1764974983.8071465,0,0,30,3.750
1764974983.8111522,0,0,43,5.375
1764974983.8151417,0,0,43,5.375
1764974983.819151,1,1,34,4.250
1764974983.8231468,0,0,12,1.500
1764974983.8272183,0,0,29,3.625
1764974983.8311675,0,0,42,5.250
1764974983.8351874,0,0,42,5.250
1764974983.8391602,1,1,34,4.250
1764974983.8431644,0,0,10,1.250
1764974983.8471625,0,0,28,3.500
1764974983.8511522,0,0,41,5.125
1764974983.855144,0,0,43,5.375
1764974983.8591568,1,1,35,4.375
1764974983.8631623,0,0,12,1.500
1764974983.8671634,0,0,28,3.500
1764974983.8711658,0,0,42,5.250
1764974983.8751578,0,0,44,5.500
1764974983.8791625,1,1,36,4.500
1764974983.8831456,0,0,12,1.500
1764974983.887153,0,0,27,3.375
1764974983.89118,0,0,42,5.250
1764974983.8951647,0,0,43,5.375
1764974983.8991642,1,1,34,4.250
1764974983.9031444,0,0,9,1.125
1764974983.9071472,0,0,25,3.125
1764974983.9111624,0,0,41,5.125
1764974983.9151604,0,0,44,5.500
1764974983.9191632,1,1,36,4.500
1764974983.923144,0,0,12,1.500
1764974983.9271426,0,0,25,3.125
1764974983.931168,0,0,41,5.125
1764974983.9351993,0,0,44,5.500
1764974983.93917,1,1,36,4.500
1764974983.943158,0,0,14,1.750
1764974983.9471593,0,0,26,3.250
1764974983.9511654,0,0,42,5.250
1764974983.9551625,0,0,45,5.625
1764974983.9591668,1,1,37,4.625
1764974983.9631572,0,0,14,1.750
1764974983.9671566,0,0,24,3.000
1764974983.9711509,0,0,41,5.125
1764974983.9751446,0,0,44,5.500
1764974983.9791574,1,1,40,5.000
1764974983.9831617,0,0,18,2.250
1764974983.9871578,0,0,26,3.250
1764974983.9911618,0,0,41,5.125
1764974983.9951575,0,0,43,5.375
1764974983.9991658,1,1,37,4.625
1764974984.0031598,0,0,15,1.875
1764974984.0071573,0,0,22,2.750
1764974984.0111578,0,0,40,5.000
1764974984.0151608,0,0,44,5.500
1764974984.0191672,1,1,38,4.750
1764974984.0231602,0,0,17,2.125
1764974984.0272324,0,0,22,2.750
1764974984.0311658,0,0,39,4.875
1764974984.0351613,0,0,44,5.500
1764974984.039157,1,1,38,4.750
1764974984.043163,0,0,15,1.875
1764974984.0471616,0,0,20,2.500
1764974984.0511482,0,0,39,4.875
1764974984.0551412,0,0,43,5.375
1764974984.0591583,1,1,38,4.750
1764974984.0631626,0,0,16,2.000
1764974984.06716,0,0,19,2.375
1764974984.0711613,0,0,39,4.875
1764974984.0751555,0,0,44,5.500
1764974984.0791643,1,1,38,4.750
1764974984.0831685,0,0,17,2.125
1764974984.0871623,0,0,18,2.250
1764974984.091145,0,0,38,4.750
1764974984.0951393,0,0,42,5.250
1764974984.099145,1,1,37,4.625
1764974984.1031446,0,0,16,2.000
1764974984.1071453,0,0,16,2.000
1764974984.111143,0,0,38,4.750
1764974984.1151392,0,0,43,5.375
1764974984.1191504,1,1,39,4.875
1764974984.1231594,0,0,20,2.500
1764974984.1271563,0,0,18,2.250
1764974984.1311545,0,0,38,4.750
1764974984.1352808,0,0,38,4.750
1764974984.1391678,1,1,38,4.750
1764974984.1431572,0,0,15,1.875
1764974984.147159,0,0,36,4.500
1764974984.151164,0,0,43,5.375
1764974984.1551588,0,0,39,4.875
1764974984.1591606,1,1,23,2.875
1764974984.1631541,0,0,18,2.250
1764974984.1671572,0,0,38,4.750
1764974984.1711574,0,0,42,5.250
1764974984.175157,0,0,39,4.875
1764974984.1791615,1,1,23,2.875
1764974984.183156,0,0,18,2.250
1764974984.1871574,0,0,38,4.750
1764974984.1911628,0,0,44,5.500
1764974984.195158,0,0,41,5.125
1764974984.1991549,1,1,25,3.125
1764974984.203155,0,0,19,2.375
1764974984.2071545,0,0,38,4.750
1764974984.211155,0,0,44,5.500
1764974984.2151563,0,0,41,5.125
1764974984.2191582,1,1,27,3.375
1764974984.2231534,0,0,19,2.375
1764974984.2272315,0,0,38,4.750
1764974984.2311664,0,0,43,5.375
1764974984.2351587,0,0,41,5.125
1764974984.2391546,1,1,27,3.375
1764974984.2431605,0,0,16,2.000
1764974984.2471552,0,0,37,4.625
1764974984.2511446,0,0,42,5.250
1764974984.255141,0,0,40,5.000
1764974984.259153,1,1,26,3.250
1764974984.26316,0,0,14,1.750
1764974984.267155,0,0,35,4.375
1764974984.2711582,0,0,42,5.250
1764974984.2751555,0,0,40,5.000
1764974984.2791603,1,1,28,3.500
1764974984.283142,0,0,16,2.000
1764974984.2871368,0,0,36,4.500
1764974984.291158,0,0,43,5.375
1764974984.2951555,0,0,41,5.125
1764974984.2991657,1,1,29,3.625
1764974984.303159,0,0,16,2.000
1764974984.3071613,0,0,35,4.375
1764974984.3111467,0,0,43,5.375
1764974984.315136,0,0,40,5.000
1764974984.3191535,1,1,27,3.375
1764974984.3231583,0,0,12,1.500
1764974984.3271558,0,0,33,4.125
1764974984.331142,0,0,41,5.125
1764974984.3351722,0,0,40,5.000
1764974984.3391564,1,1,27,3.375
1764974984.3431592,0,0,10,1.250
1764974984.3471541,0,0,33,4.125
1764974984.3511472,0,0,41,5.125
1764974984.3551376,0,0,40,5.000
1764974984.3591466,1,1,28,3.500
1764974984.3631546,0,0,10,1.250
1764974984.3671541,0,0,31,3.875
1764974984.371156,0,0,41,5.125
1764974984.375152,0,0,40,5.000
1764974984.3791587,1,1,28,3.500
1764974984.3831532,0,0,9,1.125
1764974984.3871517,0,0,30,3.750
1764974984.3911588,0,0,40,5.000
1764974984.3951497,0,0,40,5.000
1764974984.399157,1,1,27,3.375
1764974984.4031503,0,0,8,1.000
1764974984.4071527,0,0,30,3.750
1764974984.4111533,0,0,41,5.125
1764974984.4151502,0,0,40,5.000
1764974984.419159,1,1,27,3.375
1764974984.423151,0,0,7,0.875
1764974984.4320667,0,0,41,5.125
1764974984.43522,0,0,40,5.000
1764974984.4391632,1,1,28,3.500
1764974984.4431355,0,0,8,1.000
1764974984.4471378,0,0,30,3.750
1764974984.4511619,0,0,41,5.125
1764974984.4551575,0,0,41,5.125
1764974984.459159,1,1,30,3.750
1764974984.4631374,0,0,8,1.000
1764974984.4671369,0,0,30,3.750
1764974984.4711602,0,0,41,5.125
1764974984.4751558,0,0,41,5.125
1764974984.4791605,1,1,29,3.625
1764974984.4831522,0,0,7,0.875
1764974984.487153,0,0,28,3.500
1764974984.4911602,0,0,41,5.125
1764974984.4951613,0,0,42,5.250
1764974984.499161,1,1,32,4.000
1764974984.5031393,0,0,10,1.250
1764974984.5071373,0,0,29,3.625
1764974984.5111532,0,0,42,5.250
1764974984.515154,0,0,43,5.375
1764974984.519156,1,1,32,4.000
1764974984.5231352,0,0,8,1.000
1764974984.5271342,0,0,27,3.375
1764974984.5311542,0,0,41,5.125
1764974984.5351546,0,0,42,5.250
1764974984.539162,1,1,34,4.250
1764974984.5431535,0,0,11,1.375
1764974984.5471473,0,0,29,3.625
1764974984.5511522,0,0,41,5.125
1764974984.555155,0,0,42,5.250
1764974984.5591578,1,1,33,4.125
1764974984.563151,0,0,9,1.125
1764974984.567153,0,0,28,3.500
1764974984.5711489,0,0,41,5.125
1764974984.5751503,0,0,43,5.375
1764974984.5791607,1,1,34,4.250
1764974984.5831525,0,0,10,1.250
1764974984.5871515,0,0,26,3.250
1764974984.5911543,0,0,41,5.125
1764974984.5951483,0,0,43,5.375
1764974984.5991502,1,1,35,4.375
1764974984.603136,0,0,14,1.750
1764974984.607136,0,0,27,3.375
1764974984.6111472,0,0,41,5.125
1764974984.615147,0,0,43,5.375
1764974984.6191568,1,1,35,4.375
1764974984.6231499,0,0,11,1.375
1764974984.627149,0,0,24,3.000
1764974984.6312172,0,0,40,5.000
1764974984.635301,0,0,42,5.250
1764974984.6391604,1,1,34,4.250
1764974984.6431365,0,0,12,1.500
1764974984.6471345,0,0,24,3.000
1764974984.651157,0,0,39,4.875
1764974984.65515,0,0,43,5.375
1764974984.659154,1,1,34,4.250
1764974984.6631362,0,0,11,1.375
1764974984.6671364,0,0,23,2.875
1764974984.6711507,0,0,39,4.875
1764974984.6751518,0,0,42,5.250
1764974984.6791544,1,1,35,4.375
1764974984.683147,0,0,13,1.625
1764974984.6871498,0,0,23,2.875
1764974984.6911547,0,0,39,4.875
1764974984.6951685,0,0,42,5.250
1764974984.6991603,1,1,35,4.375
1764974984.703134,0,0,16,2.000
1764974984.707136,0,0,23,2.875
1764974984.7111545,0,0,39,4.875
1764974984.715153,0,0,41,5.125
1764974984.7191505,1,1,34,4.250
1764974984.7231314,0,0,10,1.250
1764974984.7271311,0,0,18,2.250
1764974984.7311504,0,0,37,4.625
1764974984.735148,0,0,41,5.125
1764974984.7391546,1,1,36,4.500
1764974984.7431476,0,0,15,1.875
1764974984.7471468,0,0,21,2.625
1764974984.751152,0,0,38,4.750
1764974984.7551446,0,0,42,5.250
1764974984.759154,1,1,16,2.000
1764974984.7631466,0,0,21,2.625
1764974984.7671447,0,0,38,4.750
1764974984.7711482,0,0,42,5.250
1764974984.7751462,0,0,38,4.750
1764974984.7791553,1,1,18,2.250
1764974984.783148,0,0,20,2.500
1764974984.7871447,0,0,39,4.875
1764974984.794659,0,0,43,5.375
1764974984.796546,0,0,39,4.875
1764974984.7991421,1,1,20,2.500
1764974984.803137,0,0,20,2.500
1764974984.807131,0,0,39,4.875
1764974984.8111339,0,0,43,5.375
1764974984.8151321,0,0,38,4.750
1764974984.8191361,1,1,18,2.250
1764974984.823134,0,0,17,2.125
1764974984.8271277,0,0,37,4.625
1764974984.8312309,0,0,42,5.250
1764974984.8351657,0,0,38,4.750
1764974984.8391578,1,1,19,2.375
1764974984.843136,0,0,17,2.125
1764974984.847129,0,0,37,4.625
1764974984.8513453,0,0,43,5.375
1764974984.8551784,0,0,39,4.875
1764974984.8592362,1,1,22,2.750
1764974984.8631554,0,0,18,2.250
1764974984.867135,0,0,38,4.750
1764974984.8711314,0,0,42,5.250
1764974984.8751283,0,0,38,4.750
1764974984.8791468,1,1,17,2.125
1764974984.8831413,0,0,10,1.250
1764974984.8871326,0,0,34,4.250
1764974984.8911307,0,0,42,5.250
1764974984.8951275,0,0,38,4.750
1764974984.8991435,1,1,20,2.500
1764974984.9031498,0,0,12,1.500
1764974984.9071467,0,0,35,4.375
1764974984.9111416,0,0,42,5.250
1764974984.9151297,0,0,38,4.750
1764974984.9191344,1,1,21,2.625
1764974984.9231367,0,0,13,1.625
1764974984.9271321,0,0,35,4.375
1764974984.9311514,0,0,42,5.250
1764974984.9351454,0,0,39,4.875
1764974984.9391558,1,1,22,2.750
1764974984.9431484,0,0,9,1.125
1764974984.9471476,0,0,35,4.375
1764974984.951152,0,0,42,5.250
1764974984.9551468,0,0,38,4.750
1764974984.9591503,1,1,20,2.500
1764974984.9631448,0,0,7,0.875
1764974984.967148,0,0,34,4.250
1764974984.9711502,0,0,42,5.250
1764974984.9751477,0,0,39,4.875
1764974984.979154,1,1,22,2.750
1764974984.9831445,0,0,6,0.750
1764974984.9871478,0,0,33,4.125
1764974984.9911485,0,0,42,5.250
1764974984.9951315,0,0,39,4.875
1764974984.9991376,1,1,23,2.875
1764974985.0031452,0,0,8,1.000
1764974985.0071454,0,0,34,4.250
1764974985.0111492,0,0,43,5.375
1764974985.015146,0,0,40,5.000
1764974985.0191557,1,1,25,3.125
1764974985.0231462,0,0,11,1.375
1764974985.027146,0,0,33,4.125
1764974985.0312269,0,0,42,5.250
1764974985.0351622,0,0,40,5.000
1764974985.0391514,1,1,24,3.000
1764974985.04313,0,0,6,0.750
1764974985.0471287,0,0,32,4.000
1764974985.0511477,0,0,41,5.125
1764974985.0551498,0,0,39,4.875
1764974985.0591516,1,1,24,3.000
1764974985.0631294,0,0,3,0.375
1764974985.067129,0,0,30,3.750
1764974985.0711486,0,0,41,5.125
1764974985.0751479,0,0,39,4.875
1764974985.0791497,1,1,25,3.125
1764974985.0831518,0,0,4,0.500
1764974985.087147,0,0,30,3.750
1764974985.0911329,0,0,41,5.125
1764974985.0951293,0,0,41,5.125
1764974985.0991364,1,1,27,3.375
1764974985.1031308,0,0,7,0.875
1764974985.107126,0,0,30,3.750
1764974985.1111279,0,0,40,5.000
1764974985.1151278,0,0,40,5.000
1764974985.119144,1,1,24,3.000
1764974985.1231494,0,0,0,0.000
1764974985.1271436,0,0,28,3.500
1764974985.1311398,0,0,40,5.000
1764974985.1351552,0,0,39,4.875
1764974985.1391592,1,1,26,3.250
1764974985.1431494,0,0,1,0.125
1764974985.1471446,0,0,27,3.375
1764974985.1511476,0,0,41,5.125
1764974985.1551437,0,0,40,5.000
1764974985.15915,1,1,27,3.375
1764974985.1631455,0,0,4,0.500
1764974985.1671445,0,0,28,3.500
1764974985.1711428,0,0,41,5.125
1764974985.175143,0,0,41,5.125
1764974985.1791527,1,1,30,3.750
1764974985.1831436,0,0,6,0.750
1764974985.1871445,0,0,29,3.625
1764974985.191149,0,0,41,5.125
1764974985.19514,0,0,42,5.250
1764974985.199149,1,1,32,4.000
1764974985.2031462,0,0,11,1.375
1764974985.2071445,0,0,31,3.875
1764974985.211145,0,0,42,5.250
1764974985.2151408,0,0,42,5.250
1764974985.2191503,1,1,32,4.000
1764974985.223144,0,0,8,1.000
1764974985.2271447,0,0,28,3.500
1764974985.2312171,0,0,41,5.125
1764974985.2351637,0,0,41,5.125
1764974985.2391481,1,1,31,3.875
1764974985.2431283,0,0,6,0.750
1764974985.2471292,0,0,26,3.250
1764974985.2511506,0,0,40,5.000
1764974985.2551446,0,0,41,5.125
1764974985.2591496,1,1,32,4.000
1764974985.2631257,0,0,7,0.875
1764974985.2671266,0,0,26,3.250
1764974985.2711477,0,0,40,5.000
1764974985.2751443,0,0,41,5.125
1764974985.2791479,1,1,32,4.000
1764974985.2831402,0,0,5,0.625
1764974985.2871387,0,0,25,3.125
1764974985.2911465,0,0,40,5.000
1764974985.2951493,0,0,41,5.125
1764974985.299151,1,1,30,3.750
1764974985.303127,0,0,1,0.125
1764974985.3071241,0,0,22,2.750
1764974985.3111463,0,0,39,4.875
1764974985.315143,0,0,42,5.250
1764974985.319145,1,1,32,4.000
1764974985.3231225,0,0,6,0.750
1764974985.327122,0,0,23,2.875
1764974985.3311462,0,0,40,5.000
1764974985.3351445,0,0,42,5.250
1764974985.339152,1,1,34,4.250
1764974985.3431442,0,0,7,0.875
1764974985.3471403,0,0,24,3.000
1764974985.3511333,0,0,41,5.125
1764974985.3551266,0,0,42,5.250
1764974985.3591387,1,1,34,4.250
1764974985.3631442,0,0,6,0.750
1764974985.3671398,0,0,21,2.625
1764974985.3711438,0,0,42,5.250
1764974985.3751416,0,0,35,4.375
1764974985.3791533,1,1,12,1.500
1764974985.383146,0,0,24,3.000
1764974985.3871403,0,0,39,4.875
1764974985.391145,0,0,42,5.250
1764974985.39514,0,0,34,4.250
1764974985.3991454,1,1,8,1.000
1764974985.4031413,0,0,20,2.500
1764974985.4071424,0,0,39,4.875
1764974985.411138,0,0,43,5.375
1764974985.4151397,0,0,35,4.375
1764974985.4191506,1,1,10,1.250
1764974985.4231427,0,0,20,2.500
1764974985.42714,0,0,39,4.875
1764974985.4361105,0,0,37,4.625
1764974985.4391708,1,1,12,1.500
1764974985.4431314,0,0,20,2.500
1764974985.4471266,0,0,39,4.875
1764974985.4511476,0,0,43,5.375
1764974985.45514,0,0,37,4.625
1764974985.4591467,1,1,15,1.875
1764974985.4631252,0,0,21,2.625
1764974985.4671266,0,0,40,5.000
1764974985.471147,0,0,42,5.250
1764974985.4751391,0,0,37,4.625
1764974985.4791412,1,1,13,1.625
1764974985.4831238,0,0,18,2.250
1764974985.487125,0,0,38,4.750
1764974985.4911466,0,0,41,5.125
1764974985.4951377,0,0,35,4.375
1764974985.4991496,1,1,8,1.000
1764974985.5031464,0,0,12,1.500
1764974985.507152,0,0,37,4.625
1764974985.5111365,0,0,42,5.250
1764974985.515124,0,0,36,4.500
1764974985.5191305,1,1,10,1.250
1764974985.5231392,0,0,11,1.375
1764974985.5271387,0,0,37,4.625
1764974985.5311277,0,0,42,5.250
1764974985.535125,0,0,35,4.375
1764974985.539137,1,1,7,0.875
1764974985.5431376,0,0,7,0.875
1764974985.5471385,0,0,36,4.500
1764974985.5511446,0,0,42,5.250
1764974985.5551436,0,0,37,4.625
1764974985.559146,1,1,13,1.625
1764974985.5631373,0,0,11,1.375
1764974985.567137,0,0,36,4.500
1764974985.5711405,0,0,43,5.375
1764974985.5751398,0,0,37,4.625
1764974985.579151,1,1,10,1.250
1764974985.583137,0,0,6,0.750
1764974985.5871384,0,0,35,4.375
1764974985.5911427,0,0,42,5.250
1764974985.595141,0,0,35,4.375
1764974985.5991418,1,1,5,0.625
1764974985.603124,0,0,-4,-0.500
1764974985.6071217,0,0,32,4.000
1764974985.611136,0,0,42,5.250
1764974985.6151357,0,0,35,4.375
1764974985.6191401,1,1,6,0.750
1764974985.6231363,0,0,-5,-0.625
1764974985.6271334,0,0,31,3.875
1764974985.6311336,0,0,42,5.250
1764974985.6352582,0,0,37,4.625
1764974985.6391718,1,1,13,1.625
1764974985.643127,0,0,0,0.000
1764974985.6471205,0,0,33,4.125
1764974985.6511424,0,0,43,5.375
1764974985.6551383,0,0,38,4.750
1764974985.659146,1,1,15,1.875
1764974985.6631227,0,0,1,0.125
1764974985.6671236,0,0,33,4.125
1764974985.67114,0,0,43,5.375
1764974985.6751337,0,0,39,4.875
1764974985.6791406,1,1,16,2.000
1764974985.6831355,0,0,-2,-0.250
1764974985.6871357,0,0,34,4.250
1764974985.6911333,0,0,44,5.500
1764974985.6951313,0,0,39,4.875
1764974985.6991441,1,1,16,2.000
1764974985.7031446,0,0,-4,-0.500
1764974985.707145,0,0,32,4.000
1764974985.7111278,0,0,42,5.250
1764974985.7151194,0,0,39,4.875
1764974985.7191293,1,1,15,1.875
1764974985.7231414,0,0,-9,-1.125
1764974985.7271378,0,0,31,3.875
1764974985.7311256,0,0,43,5.375
1764974985.735118,0,0,40,5.000
1764974985.7391362,1,1,19,2.375
1764974985.7431414,0,0,-6,-0.750
1764974985.7471356,0,0,32,4.000
1764974985.75114,0,0,44,5.500
1764974985.7551315,0,0,41,5.125
1764974985.7591386,1,1,17,2.125
1764974985.7631342,0,0,-12,-1.500
1764974985.7671354,0,0,30,3.750
1764974985.7711358,0,0,44,5.500
1764974985.7751353,0,0,41,5.125
1764974985.7791417,1,1,19,2.375
1764974985.7831333,0,0,-11,-1.375
1764974985.7871358,0,0,29,3.625
1764974985.7947142,0,0,43,5.375
1764974985.7966063,1,1,22,2.750
1764974985.799122,1,1,22,2.750
1764974985.8031201,0,0,-8,-1.000
1764974985.8071191,0,0,29,3.625
1764974985.811126,0,0,44,5.500
1764974985.815119,0,0,42,5.250
1764974985.8191228,1,1,23,2.875
1764974985.8231187,0,0,-9,-1.125
1764974985.827118,0,0,30,3.750
1764974985.8311386,0,0,44,5.500
1764974985.835206,0,0,43,5.375
1764974985.839163,1,1,21,2.625
1764974985.8431213,0,0,-18,-2.250
1764974985.8471174,0,0,25,3.125
1764974985.8512828,0,0,43,5.375
1764974985.8551247,0,0,42,5.250
1764974985.8591278,1,1,22,2.750
1764974985.8631198,0,0,-18,-2.250
1764974985.8671184,0,0,25,3.125
1764974985.8711205,0,0,44,5.500
1764974985.8751187,0,0,44,5.500
1764974985.879122,1,1,25,3.125
1764974985.8831213,0,0,-15,-1.875
1764974985.8871248,0,0,25,3.125
1764974985.8911223,0,0,44,5.500
1764974985.895121,0,0,44,5.500
1764974985.8991342,1,1,25,3.125
1764974985.9031405,0,0,-18,-2.250
1764974985.9071348,0,0,22,2.750
1764974985.9111266,0,0,42,5.250
1764974985.9151173,0,0,42,5.250
1764974985.9191806,1,1,20,2.500
1764974985.9231732,0,0,-50,-6.250
1764974985.9271371,0,0,7,0.875
1764974985.9311376,0,0,40,5.000
1764974985.935135,0,0,44,5.500
1764974985.939144,1,1,25,3.125
1764974985.9431388,0,0,-29,-3.625
1764974985.9471369,0,0,16,2.000
1764974985.951138,0,0,42,5.250
1764974985.955133,0,0,46,5.750
1764974985.9591367,1,1,30,3.750
1764974985.9631214,0,0,-13,-1.625
1764974985.9671197,0,0,23,2.875
1764974985.971136,0,0,46,5.750
1764974985.9751318,0,0,48,6.000
1764974985.9791412,1,1,35,4.375
1764974985.9831347,0,0,26,3.250
1764974985.9871335,0,0,47,5.875
1764974985.9911377,0,0,48,6.000
1764974985.995132,0,0,35,4.375
1764974985.9991384,1,1,-5,-0.625
1764974986.0031374,0,0,24,3.000
1764974986.007135,0,0,45,5.625
1764974986.011126,0,0,47,5.875
1764974986.0151165,0,0,33,4.125
1764974986.0191288,1,1,-12,-1.500
1764974986.0231338,0,0,19,2.375
1764974986.0271354,0,0,45,5.625
1764974986.031139,0,0,47,5.875
1764974986.0352159,0,0,32,4.000
1764974986.0391567,1,1,-19,-2.375
1764974986.0431206,0,0,13,1.625
1764974986.0471208,0,0,43,5.375
1764974986.0511396,0,0,47,5.875
1764974986.0551353,0,0,35,4.375
1764974986.0591369,1,1,-14,-1.750
1764974986.0631168,0,0,14,1.750
1764974986.0671196,0,0,42,5.250
1764974986.0711381,0,0,46,5.750
1764974986.0751338,0,0,32,4.000
1764974986.0791395,1,1,-20,-2.500
1764974986.0831306,0,0,8,1.000
1764974986.0871365,0,0,41,5.125
1764974986.0911272,0,0,45,5.625
1764974986.095117,0,0,32,4.000
1764974986.0991204,1,1,-23,-2.875
1764974986.1031163,0,0,3,0.375
1764974986.107114,0,0,40,5.000
1764974986.1111186,0,0,46,5.750
1764974986.115115,0,0,32,4.000
1764974986.119128,1,1,-31,-3.875
1764974986.123129,0,0,-6,-0.750
1764974986.1271281,0,0,38,4.750
1764974986.1311257,0,0,46,5.750
1764974986.1351275,0,0,34,4.250
1764974986.139159,1,1,-19,-2.375
1764974986.143134,0,0,2,0.250
1764974986.1471326,0,0,41,5.125
1764974986.1511354,0,0,49,6.125
1764974986.1551337,0,0,37,4.625
1764974986.1591341,1,1,-17,-2.125
1764974986.1631324,0,0,0,0.000
1764974986.1671276,0,0,39,4.875
1764974986.1711287,0,0,46,5.750
1764974986.1751325,0,0,34,4.250
1764974986.1791413,1,1,-40,-5.000
1764974986.1831326,0,0,-28,-3.500
1764974986.1871288,0,0,32,4.000
1764974986.191132,0,0,46,5.750
1764974986.1951299,0,0,37,4.625
1764974986.199133,1,1,-24,-3.000
1764974986.203133,0,0,-15,-1.875
1764974986.2071335,0,0,37,4.625
1764974986.2111304,0,0,49,6.125
1764974986.2151284,0,0,41,5.125
1764974986.2191403,1,1,-4,-0.500
1764974986.2231324,0,0,3,0.375
1764974986.2271318,0,0,42,5.250
1764974986.2311335,0,0,51,6.375
1764974986.2352118,0,0,44,5.500
1764974986.2391515,1,1,6,0.750
1764974986.2431195,0,0,9,1.125
1764974986.2471159,0,0,44,5.500
1764974986.2511327,0,0,52,6.500
1764974986.2551284,0,0,44,5.500
1764974986.2591343,1,1,7,0.875
1764974986.2631168,0,0,7,0.875
1764974986.2671163,0,0,43,5.375
1764974986.2711325,0,0,53,6.625
1764974986.2751293,0,0,46,5.750
1764974986.279132,1,1,11,1.375
1764974986.283127,0,0,8,1.000
1764974986.2871559,0,0,44,5.500
1764974986.291125,0,0,52,6.500
1764974986.2951124,0,0,43,5.375
1764974986.2991269,1,1,0,0.000
1764974986.3031301,0,0,-10,-1.250
1764974986.3071415,0,0,38,4.750
1764974986.3111224,0,0,50,6.250
1764974986.3151138,0,0,44,5.500
1764974986.31912,1,1,3,0.375
1764974986.3231297,0,0,-10,-1.250
1764974986.3271294,0,0,38,4.750
1764974986.3311315,0,0,51,6.375
1764974986.335128,0,0,45,5.625
1764974986.3391356,1,1,12,1.500
1764974986.3431275,0,0,1,0.125
1764974986.3471289,0,0,41,5.125
1764974986.3511226,0,0,52,6.500
1764974986.3551147,0,0,45,5.625
1764974986.3591146,1,1,12,1.500
1764974986.3631136,0,0,-6,-0.750
1764974986.367113,0,0,39,4.875
1764974986.3711178,0,0,51,6.375
1764974986.3751144,0,0,46,5.750
1764974986.3791242,1,1,11,1.375
1764974986.3831267,0,0,-13,-1.625
1764974986.3871279,0,0,37,4.625
1764974986.3911328,0,0,51,6.375
1764974986.395127,0,0,46,5.750
1764974986.3991349,1,1,14,1.750
1764974986.4031253,0,0,-10,-1.250
1764974986.4071226,0,0,37,4.625
1764974986.411125,0,0,51,6.375
1764974986.4151292,0,0,47,5.875
1764974986.419138,1,1,18,2.250
1764974986.4231286,0,0,-6,-0.750
1764974986.4271243,0,0,39,4.875
1764974986.4311283,0,0,52,6.500
1764974986.4401078,0,0,20,2.500
1764974986.4431605,0,0,-10,-1.250
1764974986.447128,0,0,36,4.500
1764974986.4511182,0,0,50,6.250
1764974986.4551103,0,0,45,5.625
1764974986.4591222,1,1,9,1.125
1764974986.4631307,0,0,-51,-6.375
1764974986.4671283,0,0,22,2.750
1764974986.4711165,0,0,47,5.875
1764974986.4751096,0,0,47,5.875
1764974986.479127,1,1,19,2.375
1764974986.4831326,0,0,-17,-2.125
1764974986.487129,0,0,34,4.250
1764974986.4911282,0,0,52,6.500
1764974986.4951243,0,0,49,6.125
1764974986.4991355,1,1,23,2.875
1764974986.5031316,0,0,-14,-1.750
1764974986.5071363,0,0,35,4.375
1764974986.5111198,0,0,52,6.500
1764974986.5151124,0,0,49,6.125
1764974986.5191143,1,1,27,3.375
1764974986.5231135,0,0,-8,-1.000
1764974986.5271108,0,0,35,4.375
1764974986.531138,0,0,52,6.500
1764974986.5351238,0,0,49,6.125
1764974986.539127,1,1,26,3.250
1764974986.5431285,0,0,-13,-1.625
1764974986.547128,0,0,34,4.250
1764974986.5511305,0,0,53,6.625
1764974986.555121,0,0,52,6.500
1764974986.559132,1,1,32,4.000
1764974986.5631242,0,0,-2,-0.250
1764974986.5671258,0,0,36,4.500
1764974986.5711288,0,0,52,6.500
1764974986.5751226,0,0,49,6.125
1764974986.5791287,1,1,25,3.125
1764974986.5831225,0,0,-33,-4.125
1764974986.587128,0,0,24,3.000
1764974986.5911276,0,0,49,6.125
1764974986.5951242,0,0,24,3.000
1764974986.5991285,1,1,-49,-6.125
1764974986.6031084,0,0,16,2.000
1764974986.6071084,0,0,46,5.750
1764974986.611125,0,0,49,6.125
1764974986.6151216,0,0,27,3.375
1764974986.6191285,1,1,-34,-4.250
1764974986.6231203,0,0,21,2.625
1764974986.6271198,0,0,48,6.000
1764974986.6311243,0,0,50,6.250
1764974986.6351216,0,0,27,3.375
1764974986.6392264,1,1,-47,-5.875
1764974986.6431394,0,0,13,1.625
1764974986.6471243,0,0,46,5.750
1764974986.6511164,0,0,47,5.875
1764974986.6551104,0,0,21,2.625
1764974986.65912,1,1,-127,-15.875
1764974986.6631231,0,0,-28,-3.500
1764974986.6671221,0,0,35,4.375
1764974986.6711144,0,0,45,5.625
1764974986.675109,0,0,21,2.625
1764974986.6791239,1,1,-170,-21.250
1764974986.683123,0,0,-53,-6.625
1764974986.6871207,0,0,30,3.750
1764974986.691121,0,0,48,6.000
1764974986.695121,0,0,31,3.875
1764974986.6991324,1,1,-69,-8.625
1764974986.7031314,0,0,-3,-0.375
1764974986.7071238,0,0,46,5.750
1764974986.7111142,0,0,51,6.375
1764974986.715111,0,0,26,3.250
1764974986.719122,1,1,-203,-25.375
1764974986.7231288,0,0,-84,-10.500
1764974986.727123,0,0,23,2.875
1764974986.7311125,0,0,50,6.250
1764974986.735108,0,0,37,4.625
1764974986.7391198,1,1,-52,-6.500
1764974986.7431238,0,0,4,0.500
1764974986.7471225,0,0,51,6.375
1764974986.7511241,0,0,58,7.250
1764974986.7551174,0,0,37,4.625
1764974986.7591312,1,0,-113,-14.125
1764974986.7631223,0,0,-40,-5.000
1764974986.7671213,0,0,39,4.875
1764974986.771117,0,0,57,7.125
1764974986.7751184,0,0,43,5.375
1764974986.7791257,1,0,-49,-6.125
1764974986.7831204,0,0,-1,-0.125
1764974986.7871196,0,0,52,6.500
1764974986.794697,0,0,47,5.875
1764974986.7965825,1,1,47,5.875
1764974986.7991173,1,1,-41,-5.125
1764974986.8031087,0,0,2,0.250
1764974986.8071094,0,0,53,6.625
1764974986.811114,0,0,63,7.875
1764974986.8151033,0,0,49,6.125
1764974986.8191168,0,0,-27,-3.375
1764974986.823106,0,0,9,1.125
1764974986.8271046,0,0,55,6.875
1764974986.831126,0,0,64,8.000
1764974986.835122,0,0,50,6.250
1764974986.8392065,0,0,-24,-3.000
1764974986.8431356,0,0,5,0.625
1764974986.8471234,0,0,54,6.750
1764974986.8511147,0,0,63,7.875
1764974986.8551073,0,0,50,6.250
1764974986.8591158,0,1,-26,-3.250
1764974986.8631213,0,0,2,0.250
1764974986.867123,0,0,52,6.500
1764974986.8711169,0,0,62,7.750
1764974986.8751063,0,0,47,5.875
1764974986.8791084,1,1,-52,-6.500
1764974986.8831084,0,0,-29,-3.625
1764974986.8871183,0,0,44,5.500
1764974986.891136,0,0,60,7.500
1764974986.8951244,1,1,48,6.000
1764974986.8991244,0,0,-46,-5.750
1764974986.9031055,0,0,-29,-3.625
1764974986.9071038,0,0,45,5.625
1764974986.9111257,0,0,62,7.750
1764974986.9151242,1,1,53,6.625
1764974986.9191272,1,1,-13,-1.625
1764974986.9231057,0,0,-1,-0.125
1764974986.9271054,0,0,53,6.625
1764974986.9311333,0,0,65,8.125
1764974986.935123,1,1,54,6.750
1764974986.9391294,0,0,-18,-2.250
1764974986.9431188,0,0,-12,-1.500
1764974986.947119,0,0,51,6.375
1764974986.9511232,0,0,65,8.125
1764974986.9551203,1,1,55,6.875
1764974986.9591305,0,0,-12,-1.500
1764974986.9631238,0,0,-11,-1.375
1764974986.9671173,0,0,50,6.250
1764974986.9711168,0,0,64,8.000
1764974986.9751189,1,1,52,6.500
1764974986.9791286,1,0,-58,-7.250
1764974986.9831216,0,0,-90,-11.250
1764974986.9871166,0,0,27,3.375
1764974986.9911218,0,0,58,7.250
1764974986.9951215,1,1,53,6.625
1764974986.9991252,0,0,-26,-3.250
1764974987.0031064,0,0,-47,-5.875
1764974987.0071018,0,0,40,5.000
1764974987.0111234,0,0,64,8.000
1764974987.01512,1,1,60,7.500
1764974987.0191264,0,0,16,2.000
1764974987.0231187,0,0,10,1.250
1764974987.0271208,0,0,57,7.125
1764974987.0311246,0,0,68,8.500
1764974987.0351024,1,1,59,7.375
1764974987.0391948,0,0,2,0.250
1764974987.0431411,0,0,-20,-2.500
1764974987.0471215,0,0,47,5.875
1764974987.0511065,0,0,64,8.000
1764974987.0551014,1,1,57,7.125
1764974987.0591164,0,0,-15,-1.875
1764974987.0631206,0,0,-71,-8.875
1764974987.0671191,0,0,33,4.125
1764974987.071112,0,0,61,7.625
1764974987.075102,1,1,58,7.250
1764974987.079115,0,0,-4,-0.500
1764974987.0831242,0,0,-58,-7.250
1764974987.0871203,0,0,38,4.750
1764974987.0911248,0,0,64,8.000
1764974987.0951219,1,1,61,7.625
1764974987.0991228,0,0,22,2.750
1764974987.1031072,0,0,-5,-0.625
1764974987.107105,0,0,53,6.625
1764974987.1111245,0,0,68,8.500
1764974987.1151185,1,1,61,7.625
1764974987.119124,0,0,6,0.750
1764974987.1231039,0,0,-70,-8.750
1764974987.1271045,0,0,33,4.125
1764974987.131122,0,0,62,7.750
1764974987.1351151,1,1,61,7.625
1764974987.1391401,0,0,20,2.500
1764974987.1431205,0,0,-32,-4.000
1764974987.147121,0,0,44,5.500
1764974987.151125,0,0,67,8.375
1764974987.1551182,1,1,64,8.000
1764974987.1591268,0,0,31,3.875
1764974987.1631165,0,0,-3,-0.375
1764974987.1671154,0,0,53,6.625
1764974987.171118,0,0,68,8.500
1764974987.1751187,1,1,63,7.875
1764974987.179122,0,0,25,3.125
1764974987.1831155,0,0,-33,-4.125
1764974987.1871157,0,0,42,5.250
1764974987.1911237,0,0,67,8.375
1764974987.1951194,1,1,65,8.125
1764974987.1991265,0,0,37,4.625
1764974987.2031152,0,0,1,0.125
1764974987.2071147,0,0,68,8.500
1764974987.2111182,0,0,64,8.000
1764974987.2151167,1,1,33,4.125
1764974987.219125,0,0,-15,-1.875
1764974987.2231143,0,0,46,5.750
1764974987.2271159,0,0,67,8.375
1764974987.231119,0,0,64,8.000
1764974987.2351177,1,1,34,4.250
1764974987.2392037,0,0,-15,-1.875
1764974987.2431383,0,0,44,5.500
1764974987.2471185,0,0,65,8.125
1764974987.251106,0,0,63,7.875
1764974987.2551024,1,1,35,4.375
1764974987.2591152,0,0,-22,-2.750
1764974987.2631183,0,0,41,5.125
1764974987.2671127,0,0,65,8.125
1764974987.2711065,0,0,64,8.000
1764974987.2751002,1,1,37,4.625
1764974987.2791173,0,0,-19,-2.375
1764974987.2831228,0,0,41,5.125
1764974987.2871177,0,0,65,8.125
1764974987.2911162,0,0,64,8.000
1764974987.295114,1,1,39,4.875
1764974987.2991254,0,0,-12,-1.500
1764974987.3031197,0,0,43,5.375
1764974987.307125,0,0,64,8.000
1764974987.311109,0,0,63,7.875
1764974987.3150995,1,1,37,4.625
1764974987.319114,0,0,-27,-3.375
1764974987.323121,0,0,35,4.375
1764974987.327117,0,0,62,7.750
1764974987.3311043,0,0,62,7.750
1764974987.3350995,1,1,38,4.750
1764974987.3391106,0,0,-26,-3.250
1764974987.3431199,0,0,34,4.250
1764974987.3471181,0,0,62,7.750
1764974987.3511102,0,0,63,7.875
1764974987.3550968,1,1,41,5.125
1764974987.3591104,0,0,-22,-2.750
1764974987.3631182,0,0,34,4.250
1764974987.367114,0,0,61,7.625
1764974987.371115,0,0,64,8.000
1764974987.3751128,1,1,42,5.250
1764974987.37912,0,0,-12,-1.500
1764974987.38311,0,0,37,4.625
1764974987.3871126,0,0,62,7.750
1764974987.3911068,0,0,64,8.000
1764974987.3951004,1,1,44,5.500
1764974987.399107,0,0,-8,-1.000
1764974987.4031148,0,0,38,4.750
1764974987.407116,0,0,63,7.875
1764974987.4111161,0,0,63,7.875
1764974987.4151134,1,1,42,5.250
1764974987.4191191,0,0,-28,-3.500
1764974987.4231105,0,0,25,3.125
1764974987.427115,0,0,59,7.375
1764974987.4311173,0,0,62,7.750
1764974987.4351118,1,1,42,5.250
1764974987.4441655,0,0,22,2.750
1764974987.447141,0,0,57,7.125
1764974987.4511104,0,0,60,7.500
1764974987.455102,1,1,37,4.625
1764974987.4591134,0,0,-110,-13.750
1764974987.4631143,0,0,-26,-3.250
1764974987.4671118,0,0,44,5.500
1764974987.4711094,0,0,59,7.375
1764974987.4751015,1,1,46,5.750
1764974987.4791148,0,0,-16,-2.000
1764974987.4831173,0,0,26,3.250
1764974987.487114,0,0,60,7.500
1764974987.4911132,0,0,64,8.000
1764974987.4951177,1,1,47,5.875
1764974987.4991283,0,0,-28,-3.500
1764974987.503122,0,0,16,2.000
1764974987.5071163,0,0,56,7.000
1764974987.5111067,0,0,62,7.750
1764974987.5150957,1,1,44,5.500
1764974987.519112,0,0,-53,-6.625
1764974987.5231166,0,0,-3,-0.375
1764974987.5271132,0,0,51,6.375
1764974987.5311005,0,0,62,7.750
1764974987.5350995,1,1,46,5.750
1764974987.5391142,0,0,-47,-5.875
1764974987.5431163,0,0,-3,-0.375
1764974987.5471125,0,0,52,6.500
1764974987.5511143,0,0,63,7.875
1764974987.5551126,1,1,50,6.250
1764974987.5591168,0,0,-16,-2.000
1764974987.5630991,0,0,17,2.125
1764974987.567098,0,0,57,7.125
1764974987.5711172,0,0,64,8.000
1764974987.5751112,1,1,47,5.875
1764974987.5791204,0,0,-44,-5.500
1764974987.5831115,0,0,-9,-1.125
1764974987.5871131,0,0,50,6.250
1764974987.5911133,0,0,63,7.875
1764974987.5951116,1,1,52,6.500
1764974987.5991173,0,0,-4,-0.500
1764974987.6030982,0,0,20,2.500
1764974987.6070955,0,0,59,7.375
1764974987.6111145,0,0,66,8.250
1764974987.6151083,1,1,50,6.250
1764974987.6191144,0,0,-40,-5.000
1764974987.6231093,0,0,-15,-1.875
1764974987.6271102,0,0,49,6.125
1764974987.6311128,0,0,64,8.000
1764974987.6351025,1,1,56,7.000
1764974987.6391883,0,0,10,1.250
1764974987.6432297,0,0,26,3.250
1764974987.6471684,0,0,60,7.500
1764974987.6511488,0,0,67,8.375
1764974987.655137,1,1,56,7.000
1764974987.6591501,0,0,3,0.375
1764974987.6631534,0,0,17,2.125
1764974987.6671584,0,0,58,7.250
1764974987.6711462,0,0,67,8.375
1764974987.675137,1,1,56,7.000
1764974987.6791465,0,0,1,0.125
1764974987.683155,0,0,10,1.250
1764974987.6871526,0,0,56,7.000
1764974987.691157,0,0,65,8.125
1764974987.6951525,1,1,55,6.875
1764974987.6991584,0,0,1,0.125
1764974987.7031548,0,0,6,0.750
1764974987.7071629,0,0,54,6.750
1764974987.7111485,0,0,64,8.000
1764974987.7151372,1,1,53,6.625
1764974987.7191532,0,0,-13,-1.625
1764974987.7231545,0,0,-16,-2.000
1764974987.727153,0,0,47,5.875
1764974987.7311444,0,0,63,7.875
1764974987.7351372,1,1,55,6.875
1764974987.7391112,0,0,6,0.750
1764974987.7431092,0,0,2,0.250
1764974987.7471058,0,0,52,6.500
1764974987.751114,0,0,64,8.000
1764974987.7551107,1,1,53,6.625
1764974987.759117,0,0,-27,-3.375
1764974987.7631063,0,0,-55,-6.875
1764974987.767105,0,0,37,4.625
1764974987.7711074,0,0,61,7.625
1764974987.775108,1,1,58,7.250
1764974987.7791157,0,0,19,2.375
1764974987.783107,0,0,13,1.625
1764974987.7871056,0,0,56,7.000
1764974987.7946768,1,1,61,7.625
1764974987.7965631,1,1,23,2.875
1764974987.7991023,0,0,23,2.875
1764974987.8030999,0,0,11,1.375
1764974987.8070927,0,0,55,6.875
1764974987.811129,0,0,66,8.250
1764974987.8150973,1,1,57,7.125
1764974987.8191037,0,0,13,1.625
1764974987.82313,0,0,47,5.875
1764974987.8270998,0,0,62,7.750
1764974987.8311114,0,0,55,6.875
1764974987.8351088,1,1,1,0.125
1764974987.8391213,0,0,-50,-6.250
1764974987.8431876,0,0,35,4.375
1764974987.8471212,0,0,60,7.500
1764974987.851098,0,0,57,7.125
1764974987.8550923,1,1,14,1.750
1764974987.859111,0,0,-26,-3.250
1764974987.863113,0,0,43,5.375
1764974987.8671093,0,0,63,7.875
1764974987.8711007,0,0,59,7.375
1764974987.875092,1,1,21,2.625
1764974987.8791075,0,0,-14,-1.750
1764974987.883115,0,0,46,5.750
1764974987.8871114,0,0,63,7.875
1764974987.891111,0,0,58,7.250
1764974987.8951077,1,1,19,2.375
1764974987.8991122,0,0,-31,-3.875
1764974987.9030955,0,0,40,5.000
1764974987.9071193,0,0,60,7.500
1764974987.9111166,0,0,58,7.250
1764974987.9151037,1,1,20,2.500
1764974987.9191058,0,0,-38,-4.750
1764974987.9231105,0,0,36,4.500
1764974987.9271111,0,0,59,7.375
1764974987.9310994,0,0,55,6.875
1764974987.935095,1,1,4,0.500
1764974987.9391046,0,0,-160,-20.000
1764974987.9431088,0,0,-2,-0.250
1764974987.9471064,0,0,50,6.250
1764974987.951113,0,0,57,7.125
1764974987.9551094,1,1,27,3.375
1764974987.9591186,0,0,-26,-3.250
1764974987.963107,0,0,41,5.125
1764974987.9671082,0,0,63,7.875
1764974987.9711099,0,0,60,7.500
1764974987.9751084,1,1,28,3.500
1764974987.9791121,0,0,-41,-5.125
1764974987.9831047,0,0,35,4.375
1764974987.9871068,0,0,61,7.625
1764974987.9911103,0,0,61,7.625
1764974987.9951067,1,1,33,4.125
1764974987.9991171,0,0,-22,-2.750
1764974988.0031068,0,0,41,5.125
1764974988.0071044,0,0,63,7.875
1764974988.011107,0,0,61,7.625
1764974988.0151072,1,1,31,3.875
1764974988.019117,0,0,-38,-4.750
1764974988.0231044,0,0,34,4.250
1764974988.027102,0,0,61,7.625
1764974988.0311084,0,0,61,7.625
1764974988.0351086,1,1,33,4.125
1764974988.0391135,0,0,-42,-5.250
1764974988.0431828,0,0,30,3.750
1764974988.0471084,0,0,61,7.625
1764974988.0510943,0,0,63,7.875
1764974988.0550892,1,1,42,5.250
1764974988.059104,0,0,1,0.125
1764974988.0631084,0,0,46,5.750
1764974988.0671058,0,0,66,8.250
1764974988.0710976,0,0,64,8.000
1764974988.0750923,1,1,41,5.125
1764974988.0791063,0,0,-13,-1.625
1764974988.0831103,0,0,39,4.875
1764974988.0871058,0,0,62,7.750
1764974988.091106,0,0,62,7.750
1764974988.0951042,1,1,37,4.625
1764974988.0991135,0,0,-38,-4.750
1764974988.1030958,0,0,26,3.250
1764974988.1071024,0,0,58,7.250
1764974988.1110916,0,0,60,7.500
1764974988.1150882,1,1,33,4.125
1764974988.1191041,0,0,-101,-12.625
1764974988.1231084,0,0,-4,-0.500
1764974988.1271057,0,0,51,6.375
1764974988.1310914,0,0,60,7.500
1764974988.1350906,1,1,41,5.125
1764974988.1391299,0,0,-33,-4.125
1764974988.1431112,0,0,26,3.250
1764974988.1471043,0,0,60,7.500
1764974988.15111,0,0,63,7.875
1764974988.1551025,1,1,37,4.625
1764974988.1591125,0,0,-101,-12.625
1764974988.1631021,0,0,-13,-1.625
1764974988.1671062,0,0,49,6.125
1764974988.171109,0,0,60,7.500
1764974988.1751025,1,1,40,5.000
1764974988.1791093,0,0,-66,-8.250
1764974988.1831038,0,0,5,0.625
1764974988.1871061,0,0,54,6.750
1764974988.19111,0,0,62,7.750
1764974988.1951003,1,1,39,4.875
1764974988.1991062,0,0,-120,-15.000
1764974988.203105,0,0,-30,-3.750
1764974988.207104,0,0,45,5.625
1764974988.2111037,0,0,61,7.625
1764974988.2151036,1,1,44,5.500
1764974988.2191112,0,0,-63,-7.875
1764974988.2231016,0,0,1,0.125
1764974988.2271032,0,0,55,6.875
1764974988.2311082,0,0,65,8.125
1764974988.2351048,1,1,50,6.250
1764974988.2391121,0,0,-18,-2.250
1764974988.2431803,0,0,25,3.125
1764974988.247113,0,0,61,7.625
1764974988.2510972,0,0,66,8.250
1764974988.255089,1,1,46,5.750
1764974988.2591,0,0,-102,-12.750
1764974988.2631032,0,0,-36,-4.500
1764974988.2671034,0,0,45,5.625
1764974988.271094,0,0,63,7.875
1764974988.2750888,1,1,49,6.125
1764974988.2791047,0,0,-54,-6.750
1764974988.2831068,0,0,-6,-0.750
1764974988.2871034,0,0,55,6.875
1764974988.2911072,0,0,67,8.375
1764974988.2951045,1,1,51,6.375
1764974988.299111,0,0,-63,-7.875
1764974988.3031013,0,0,-16,-2.000
1764974988.3071067,0,0,51,6.375
1764974988.311106,0,0,65,8.125
1764974988.3151057,1,1,47,5.875
1764974988.319109,0,0,-123,-15.375
1764974988.3230903,0,0,-73,-9.125
1764974988.327087,0,0,36,4.500
1764974988.331105,0,0,62,7.750
1764974988.3351045,1,1,51,6.375
1764974988.339107,0,0,-87,-10.875
1764974988.3430882,0,0,-52,-6.500
1764974988.3470864,0,0,44,5.500
1764974988.351088,0,0,66,8.250
1764974988.3550866,1,1,54,6.750
1764974988.3591006,0,0,-82,-10.250
1764974988.363104,0,0,-58,-7.250
1764974988.3671024,0,0,42,5.250
1764974988.3711019,0,0,68,8.500
1764974988.3751025,1,1,58,7.250
1764974988.3791106,0,0,-37,-4.625
1764974988.3831022,0,0,-18,-2.250
1764974988.3871043,0,0,54,6.750
1764974988.3911045,0,0,71,8.875
1764974988.395098,1,1,58,7.250
1764974988.39911,0,0,-70,-8.750
1764974988.4031048,0,0,-60,-7.500
1764974988.4071028,0,0,42,5.250
1764974988.411088,0,0,69,8.625
1764974988.4150844,1,1,62,7.750
1764974988.4190948,0,0,-11,-1.375
1764974988.4231033,0,0,-4,-0.500
1764974988.4271014,0,0,60,7.500
1764974988.4311063,0,0,63,7.875
1764974988.4351,1,1,-31,-3.875
1764974988.4391522,0,0,-38,-4.750
1764974988.4493012,0,0,71,8.875
1764974988.451211,0,0,58,7.250
1764974988.4551535,1,1,-101,-12.625
1764974988.4591494,0,0,-155,-19.375
1764974988.4631276,0,0,16,2.000
1764974988.46713,0,0,62,7.750
1764974988.4711497,0,0,60,7.500
1764974988.475148,1,1,-43,-5.375
1764974988.47915,0,0,-83,-10.375
1764974988.4831278,0,0,39,4.875
1764974988.4871268,0,0,71,8.875
1764974988.491153,0,0,66,8.250
1764974988.4951477,1,1,-11,-1.375
1764974988.4991517,0,0,-41,-5.125
1764974988.5031404,0,0,51,6.375
1764974988.507162,0,0,75,9.375
1764974988.5111566,0,0,67,8.375
1764974988.5151472,1,1,-28,-3.500
1764974988.519148,0,0,-93,-11.625
1764974988.523125,0,0,36,4.500
1764974988.5271218,0,0,71,8.875
1764974988.531151,0,0,67,8.375
1764974988.5351462,1,1,-31,-3.875
1764974988.5391085,0,0,-128,-16.000
1764974988.5430834,0,0,27,3.375
1764974988.5470812,0,0,69,8.625
1764974988.5511065,0,0,67,8.375
1764974988.5551033,1,1,-36,-4.500
1764974988.5591092,0,0,-180,-22.500
1764974988.5630999,0,0,13,1.625
1764974988.567099,0,0,67,8.375
1764974988.5710979,0,0,70,8.750
1764974988.5751004,1,1,-5,-0.625
1764974988.579109,0,0,-114,-14.250
1764974988.583101,0,0,32,4.000
1764974988.5870981,0,0,75,9.375
1764974988.5911024,0,0,75,9.375
1764974988.595099,1,1,15,1.875
1764974988.5991058,0,0,-79,-9.875
1764974988.6030858,0,0,42,5.250
1764974988.6070814,0,0,77,9.625
1764974988.611101,0,0,74,9.250
1764974988.615099,1,1,2,0.250
1764974988.6191049,0,0,-164,-20.500
1764974988.6230965,0,0,16,2.000
1764974988.6270936,0,0,71,8.875
1764974988.6310937,0,0,76,9.500
1764974988.6350923,1,1,24,3.000
1764974988.639178,0,0,-92,-11.500
1764974988.6431577,0,0,38,4.750
1764974988.6472125,0,0,77,9.625
1764974988.651145,0,0,78,9.750
1764974988.6551247,1,1,32,4.000
1764974988.659144,0,0,-76,-9.500
1764974988.663146,0,0,42,5.250
1764974988.6671429,0,0,80,10.000
1764974988.6711318,0,0,81,10.125
1764974988.6751235,1,1,48,6.000
1764974988.6791415,0,0,-6,-0.750
1764974988.683146,0,0,64,8.000
1764974988.68714,0,0,86,10.750
1764974988.6911418,0,0,82,10.250
1764974988.6951385,1,1,48,6.000
1764974988.6991527,0,0,-27,-3.375
1764974988.7031238,0,0,55,6.875
1764974988.7071242,0,0,81,10.125
1764974988.711145,0,0,77,9.625
1764974988.7151394,1,1,28,3.500
1764974988.719146,0,0,-200,-25.000
1764974988.7231233,0,0,-6,-0.750
1764974988.7271242,0,0,64,8.000
1764974988.7311437,0,0,73,9.125
1764974988.7351403,1,1,14,1.750
1764974988.7391047,0,0,-347,-43.375
1764974988.743094,0,0,-60,-7.500
1764974988.7470968,0,0,51,6.375
1764974988.7511003,0,0,74,9.250
1764974988.755095,1,1,40,5.000
1764974988.759102,0,0,-173,-21.625
1764974988.7630944,0,0,0,0.000
1764974988.7670963,0,0,70,8.750
1764974988.7710953,0,0,82,10.250
1764974988.7750955,1,1,46,5.750
1764974988.7791014,0,0,-173,-21.625
1764974988.7830923,0,0,-3,-0.375
1764974988.7870913,0,0,70,8.750
1764974988.794712,1,1,37,4.625
1764974988.7966003,1,1,37,4.625
1764974988.7990956,0,0,-351,-43.875
1764974988.803083,0,0,-81,-10.125
1764974988.8070798,0,0,49,6.125
1764974988.811084,0,0,76,9.500
1764974988.8150814,1,1,32,4.000
1764974988.8190892,0,0,-444,-55.500
1764974988.8230786,0,0,-121,-15.125
1764974988.8270795,0,0,42,5.250
1764974988.8311005,0,0,81,10.125
1764974988.8350964,1,1,62,7.750
1764974988.8391001,0,0,-128,-16.000
1764974988.8430943,0,0,8,1.000
1764974988.8471632,0,0,82,10.250
1764974988.8513002,0,0,94,11.750
1764974988.855091,1,1,65,8.125
1764974988.8590937,0,0,-181,-22.625
1764974988.8630838,0,0,-21,-2.625
1764974988.8670819,0,0,74,9.250
1764974988.871081,0,0,94,11.750
1764974988.875081,1,1,71,8.875
1764974988.879088,0,0,-116,-14.500
1764974988.8830845,0,0,5,0.625
1764974988.887079,0,0,82,10.250
1764974988.891097,0,0,95,11.875
1764974988.8950973,1,1,70,8.750
1764974988.8991094,0,0,-166,-20.750
1764974988.9030967,0,0,-27,-3.375
1764974988.907095,0,0,73,9.125
1764974988.9110954,0,0,94,11.750
1764974988.915092,1,1,71,8.875
1764974988.9191008,0,0,-198,-24.750
1764974988.9230833,0,0,-49,-6.125
1764974988.9270802,0,0,68,8.500
1764974988.9311018,0,0,94,11.750
1764974988.9350975,1,1,69,8.625
1764974988.9391046,0,0,-295,-36.875
1764974988.9430966,0,0,-111,-13.875
1764974988.9470992,0,0,53,6.625
1764974988.9510987,0,0,93,11.625
1764974988.9550936,1,1,80,10.000
1764974988.959102,0,0,-113,-14.125
1764974988.9630997,0,0,-12,-1.500
1764974988.9670963,0,0,83,10.375
1764974988.9710963,0,0,103,12.875
1764974988.975094,1,1,85,10.625
1764974988.979102,0,0,-116,-14.500
1764974988.9830961,0,0,-24,-3.000
1764974988.9870965,0,0,79,9.875
1764974988.9911008,0,0,101,12.625
1764974988.995095,1,1,80,10.000
1764974988.9990997,0,0,-237,-29.625
1764974989.0030951,0,0,-116,-14.500
1764974989.0070956,0,0,53,6.625
1764974989.0110967,0,0,94,11.750
1764974989.0150967,1,1,78,9.750
1764974989.0191,0,0,-302,-37.750
1764974989.0230935,0,0,-174,-21.750
1764974989.0270936,0,0,38,4.750
1764974989.0311003,0,0,95,11.875
1764974989.0350955,1,1,89,11.125
1764974989.0391493,0,0,-63,-7.875
1764974989.0431373,0,0,73,9.125
1764974989.047217,0,0,107,13.375
1764974989.0511472,0,0,92,11.500
1764974989.0551236,1,1,-151,-18.875
1764974989.0591354,0,0,-91,-11.375
1764974989.0631394,0,0,65,8.125
1764974989.0671399,0,0,105,13.125
1764974989.0711317,0,0,93,11.625
1764974989.0751212,1,1,-169,-21.125
1764974989.079131,0,0,-119,-14.875
1764974989.0831213,0,0,57,7.125
1764974989.0871162,0,0,103,12.875
1764974989.0911427,0,0,96,12.000
1764974989.0951405,1,1,-120,-15.000
1764974989.0991406,0,0,-93,-11.625
1764974989.1031222,0,0,66,8.250
1764974989.1071236,0,0,107,13.375
1764974989.1111193,0,0,99,12.375
1764974989.1151187,1,1,-108,-13.500
1764974989.1191351,0,0,-95,-11.875
1764974989.1231377,0,0,66,8.250
1764974989.127135,0,0,109,13.625
1764974989.1311224,0,0,100,12.500
1764974989.1351192,1,1,-144,-18.000
1764974989.1391132,0,0,-159,-19.875
1764974989.143106,0,0,49,6.125
1764974989.1470954,0,0,104,13.000
1764974989.1510983,0,0,97,12.125
1764974989.1550968,1,1,-236,-29.500
1764974989.1591048,0,0,-300,-37.500
1764974989.1630964,0,0,9,1.125
1764974989.1670911,0,0,95,11.875
1764974989.1710913,0,0,97,12.125
1764974989.1750915,1,1,-271,-33.875
1764974989.179096,0,0,-386,-48.250
1764974989.1830947,0,0,-12,-1.500
1764974989.1870935,0,0,95,11.875
1764974989.1910942,0,0,108,13.500
1764974989.1950903,1,1,-76,-9.500
1764974989.1990979,0,0,-140,-17.500
1764974989.203095,0,0,63,7.875
1764974989.2070925,0,0,119,14.875
1764974989.2110925,0,0,117,14.625
1764974989.2150917,1,1,-64,-8.000
1764974989.2190945,0,0,-166,-20.750
1764974989.2230928,0,0,56,7.000
1764974989.2270937,0,0,118,14.750
1764974989.2310967,0,0,121,15.125
1764974989.2350907,1,1,20,2.500
1764974989.239096,0,0,-39,-4.875
1764974989.24309,0,0,93,11.625
1764974989.2471611,0,0,128,16.000
1764974989.251096,0,0,121,15.125
1764974989.2550778,1,1,-19,-2.375
1764974989.2590914,0,0,-146,-18.250
1764974989.2630954,0,0,61,7.625
1764974989.2670932,0,0,117,14.625
1764974989.2710865,0,0,116,14.500
1764974989.2750754,1,1,-83,-10.375
1764974989.2790868,0,0,-330,-41.250
1764974989.2830918,0,0,6,0.750
1764974989.287092,0,0,102,12.750
1764974989.2910933,0,0,113,14.125
1764974989.2950902,1,1,-112,-14.000
1764974989.299099,0,0,-465,-58.125
1764974989.3030922,0,0,-33,-4.125
1764974989.307096,0,0,96,12.000
1764974989.3110876,0,0,116,14.500
1764974989.3150785,1,1,-63,-7.875
1764974989.3190832,0,0,-420,-52.500
1764974989.32309,0,0,-16,-2.000
1764974989.3270886,0,0,104,13.000
1764974989.3310816,0,0,124,15.500
1764974989.335075,1,1,-20,-2.500
1764974989.339085,0,0,-365,-45.625
1764974989.343091,0,0,1,0.125
1764974989.3470876,0,0,110,13.750
1764974989.3510816,0,0,125,15.625
1764974989.3550768,1,1,-81,-10.125
1764974989.3590894,0,0,-641,-80.125
1764974989.363092,0,0,-88,-11.000
1764974989.3670897,0,0,89,11.125
1764974989.371092,0,0,123,15.375
1764974989.375092,1,1,-92,-11.500
1764974989.3790982,0,0,-734,-91.750
1764974989.3830874,0,0,-115,-14.375
1764974989.3870869,0,0,88,11.000
1764974989.3910923,0,0,131,16.375
1764974989.3950894,1,1,-36,-4.500
1764974989.399093,0,0,-663,-82.875
1764974989.403092,0,0,-94,-11.750
1764974989.4070883,0,0,100,12.500
1764974989.41109,0,0,141,17.625
1764974989.4150894,1,1,-1,-0.125
1764974989.4190917,0,0,-638,-79.750
1764974989.4230893,0,0,-89,-11.125
1764974989.4270873,0,0,106,13.250
1764974989.4310796,0,0,149,18.625
1764974989.4350708,1,1,19,2.375
1764974989.4391344,0,0,-657,-82.125
1764974989.4431362,0,0,-99,-12.375
1764974989.4534593,1,1,-14,-1.750
1764974989.4553537,1,1,-14,-1.750
1764974989.459146,0,0,-910,-113.750
1764974989.4631188,0,0,-200,-25.000
1764974989.46712,0,0,82,10.250
1764974989.4711378,0,0,148,18.500
1764974989.4751313,1,1,-104,-13.000
1764974989.4791393,0,0,-1331,-166.375
1764974989.483117,0,0,-365,-45.625
1764974989.4871163,0,0,46,5.750
1764974989.4911325,0,0,152,19.000
1764974989.4951303,1,1,-46,-5.750
1764974989.4991376,0,0,-1223,-152.875
1764974989.5031333,0,0,-324,-40.500
1764974989.507133,0,0,73,9.125
1764974989.5111394,0,0,179,22.375
1764974989.51513,1,1,136,17.000
1764974989.519152,0,0,-459,-57.375
1764974989.523135,0,0,-33,-4.125
1764974989.5271292,0,0,163,20.375
1764974989.5311272,0,0,208,26.000
1764974989.5351233,1,1,145,18.125
1764974989.5390904,0,0,-532,-66.500
1764974989.5430865,0,0,-77,-9.625
1764974989.5470884,0,0,150,18.750
1764974989.551082,0,0,202,25.250
1764974989.5550692,1,1,90,11.250
1764974989.5590837,0,0,-965,-120.625
1764974989.5630903,0,0,-271,-33.875
1764974989.567087,0,0,99,12.375
1764974989.5710921,0,0,196,24.500
1764974989.5750906,1,1,130,16.250
1764974989.579088,0,0,-784,-98.000
1764974989.5830858,0,0,-205,-25.625
1764974989.5870888,0,0,125,15.625
1764974989.5910926,0,0,211,26.375
1764974989.5950875,1,1,169,21.125
1764974989.599087,0,0,-603,-75.375
1764974989.6030724,0,0,-144,-18.000
1764974989.607069,0,0,145,18.125
1764974989.61109,0,0,217,27.125
1764974989.6150875,1,1,114,14.250
1764974989.6190927,0,0,-1133,-141.625
1764974989.623083,0,0,-412,-51.500
1764974989.6270826,0,0,75,9.375
1764974989.6310892,0,0,209,26.125
1764974989.6350837,1,1,197,24.625
1764974989.639096,0,0,-492,-61.500
1764974989.6430793,0,0,-114,-14.250
1764974989.6470695,0,0,167,20.875
1764974989.6511667,0,0,206,25.750
1764974989.6551,1,1,-573,-71.625
1764974989.659095,0,0,-185,-23.125
1764974989.6630712,0,0,147,18.375
1764974989.667072,0,0,233,29.125
1764974989.6710904,0,0,197,24.625
1764974989.6750865,1,1,-752,-94.000
1764974989.6790946,0,0,-307,-38.375
1764974989.683072,0,0,114,14.250
1764974989.6870692,0,0,227,28.375
1764974989.6910877,0,0,190,23.750
1764974989.6950865,1,1,-904,-113.000
1764974989.6990855,0,0,-414,-51.750
1764974989.7031007,0,0,90,11.250
1764974989.7070904,0,0,228,28.500
1764974989.7110784,0,0,211,26.375
1764974989.7150698,1,1,-790,-98.750
1764974989.7190845,0,0,-393,-49.125
1764974989.723088,0,0,103,12.875
1764974989.7270858,0,0,239,29.875
1764974989.7310736,0,0,237,29.625
1764974989.7350671,1,1,-571,-71.375
1764974989.7390835,0,0,-289,-36.125
1764974989.7430856,0,0,136,17.000
1764974989.7470844,0,0,252,31.500
1764974989.7510855,0,0,237,29.625
1764974989.7550812,1,1,-723,-90.375
1764974989.7590892,0,0,-423,-52.875
1764974989.7630827,0,0,101,12.625
1764974989.767083,0,0,246,30.750
1764974989.771083,0,0,231,28.875
1764974989.7750816,1,1,-900,-112.500
1764974989.7790837,0,0,-584,-73.000
1764974989.7830834,0,0,62,7.750
1764974989.787083,0,0,244,30.500
1764974989.7946913,1,1,-577,-72.125
1764974989.7965803,0,0,-577,-72.125
1764974989.7990782,0,0,-442,-55.250
1764974989.8030727,0,0,106,13.250
1764974989.8070705,0,0,256,32.000
1764974989.811075,0,0,217,27.125
1764974989.8150663,1,1,-1299,-162.375
1764974989.819069,0,0,-1033,-129.125
1764974989.823068,0,0,-53,-6.625
1764974989.8270695,0,0,233,29.125
1764974989.8310888,0,0,280,35.000
1764974989.835083,1,1,-545,-68.125
1764974989.8390913,0,0,-488,-61.000
1764974989.8430812,0,0,117,14.625
1764974989.847083,0,0,288,36.000
1764974989.8513186,0,0,299,37.375
1764974989.855084,1,1,-618,-77.250
1764974989.8590708,0,0,-611,-76.375
1764974989.863068,0,0,85,10.625
1764974989.8670676,0,0,284,35.500
1764974989.8710728,0,0,305,38.125
1764974989.8750694,1,1,-587,-73.375
1764974989.8790715,0,0,-671,-83.875
1764974989.883068,0,0,73,9.125
1764974989.8870664,0,0,287,35.875
1764974989.8910925,0,0,318,39.750
1764974989.895088,1,1,-423,-52.875
1764974989.8990917,0,0,-564,-70.500
1764974989.9030838,0,0,109,13.625
1764974989.9070868,0,0,301,37.625
1764974989.9110794,0,0,330,41.250
1764974989.91507,1,1,-270,-33.750
1764974989.91908,0,0,-479,-59.875
1764974989.9230852,0,0,136,17.000
1764974989.927081,0,0,309,38.625
1764974989.931074,0,0,330,41.250
1764974989.9350686,1,1,-363,-45.375
1764974989.9390738,0,0,-690,-86.250
1764974989.9430704,0,0,74,9.250
1764974989.9470663,0,0,293,36.625
1764974989.9510834,0,0,323,40.375
1764974989.9550855,1,1,-549,-68.625
1764974989.9590948,0,0,-1006,-125.750
1764974989.9630845,0,0,-15,-1.875
1764974989.967081,0,0,276,34.500
1764974989.9710834,0,0,332,41.500
1764974989.9750826,1,1,-388,-48.500
1764974989.979086,0,0,-892,-111.500
1764974989.9830816,0,0,25,3.125
1764974989.987082,0,0,296,37.000
1764974989.9910862,0,0,348,43.500
1764974989.9950807,1,1,-251,-31.375
1764974989.9990842,0,0,-829,-103.625
1764974990.0030868,0,0,46,5.750
1764974990.0070832,0,0,306,38.250
1764974990.0110807,0,0,358,44.750
1764974990.015081,1,1,-152,-19.000
1764974990.0190847,0,0,-744,-93.000
1764974990.0230846,0,0,73,9.125
1764974990.0270848,0,0,318,39.750
1764974990.0310855,0,0,365,45.625
1764974990.0350807,1,1,-104,-13.000
1764974990.039085,0,0,-781,-97.625
1764974990.043083,0,0,59,7.375
1764974990.0470822,0,0,317,39.625
1764974990.05116,0,0,372,46.500
1764974990.0550928,1,1,76,9.500
1764974990.0590842,0,0,-499,-62.375
1764974990.0630684,0,0,143,17.875
1764974990.067067,0,0,339,42.375
1764974990.0710864,0,0,374,46.750
1764974990.07508,1,1,-16,-2.000
1764974990.079085,0,0,-819,-102.375
1764974990.0830662,0,0,34,4.250
1764974990.0870664,0,0,307,38.375
1764974990.0910707,0,0,360,45.000
1764974990.095064,1,1,-239,-29.875
1764974990.0990646,0,0,-1378,-172.250
1764974990.1030672,0,0,-154,-19.250
1764974990.1070752,0,0,262,32.750
1764974990.1110692,0,0,362,45.250
1764974990.1150653,1,1,-32,-4.000
1764974990.1190667,0,0,-1061,-132.625
1764974990.1230662,0,0,-49,-6.125
1764974990.1270645,0,0,300,37.500
1764974990.131069,0,0,383,47.875
1764974990.1350663,1,1,128,16.000
1764974990.1390724,0,0,-753,-94.125
1764974990.1430955,0,0,50,6.250
1764974990.147083,0,0,329,41.125
1764974990.1510868,0,0,389,48.625
1764974990.1550822,1,1,35,4.375
1764974990.1590905,0,0,-1099,-137.375
1764974990.163079,0,0,-78,-9.750
1764974990.1670775,0,0,295,36.875
1764974990.1710815,0,0,387,48.375
1764974990.1750793,1,1,160,20.000
1764974990.1790817,0,0,-866,-108.250
1764974990.1830797,0,0,-12,-1.500
1764974990.1870792,0,0,316,39.500
1764974990.1910825,0,0,394,49.250
1764974990.1950812,1,1,147,18.375
1764974990.1990843,0,0,-1001,-125.125
1764974990.2030795,0,0,-74,-9.250
1764974990.2070777,0,0,301,37.625
1764974990.2110786,0,0,393,49.125
1764974990.2150805,1,1,155,19.375
1764974990.2190835,0,0,-1096,-137.000
1764974990.2230804,0,0,-133,-16.625
1764974990.2270777,0,0,285,35.625
1764974990.2310832,0,0,384,48.000
1764974990.2350805,1,1,-126,-15.750
1764974990.239086,0,0,-1874,-234.250
1764974990.2430835,0,0,-445,-55.625
1764974990.2470794,0,0,215,26.875
1764974990.2511537,0,0,392,49.000
1764974990.2550905,1,1,165,20.625
1764974990.2590842,0,0,-1278,-159.750
1764974990.263065,0,0,-220,-27.500
1764974990.2670653,0,0,290,36.250
1764974990.271082,0,0,281,35.125
1764974990.275078,1,1,-962,-120.250
1764974990.2790854,0,0,-114,-14.250
1764974990.2830665,0,0,323,40.375
1764974990.287065,0,0,433,54.125
1764974990.2910836,0,0,197,24.625
1764974990.2950785,1,1,-1386,-173.250
1764974990.299083,0,0,-309,-38.625
1764974990.3030777,0,0,273,34.125
1764974990.307081,0,0,432,54.000
1764974990.3110762,0,0,370,46.250
1764974990.3150613,1,1,-649,-81.125
1764974990.319071,0,0,-9,-1.125
1764974990.3230815,0,0,362,45.250
1764974990.3270779,0,0,455,56.875
1764974990.331067,0,0,342,42.750
1764974990.3350594,1,1,-930,-116.250
1764974990.3390756,0,0,-162,-20.250
1764974990.343082,0,0,316,39.500
1764974990.3470805,0,0,444,55.500
1764974990.3510723,0,0,370,46.250
1764974990.3550606,1,1,-814,-101.750
1764974990.3590703,0,0,-143,-17.875
1764974990.363078,0,0,321,40.125
1764974990.3670785,0,0,440,55.000
1764974990.3710792,0,0,268,33.500
1764974990.3750777,1,1,-1471,-183.875
1764974990.3790758,0,0,-514,-64.250
1764974990.383076,0,0,220,27.500
1764974990.3870792,0,0,422,52.750
1764974990.3910825,0,0,333,41.625
1764974990.3950777,1,1,-1222,-152.750
1764974990.399077,0,0,-423,-52.875
1764974990.4030771,0,0,253,31.625
1764974990.4070742,0,0,438,54.750
1764974990.4110763,0,0,319,39.875
1764974990.4150798,1,1,-1410,-176.250
1764974990.4190767,0,0,-564,-70.500
1764974990.4230738,0,0,221,27.625
1764974990.4270747,0,0,439,54.875
1764974990.4310818,0,0,343,42.875
1764974990.4350762,0,0,-1397,-174.625
1764974990.439082,0,0,-616,-77.000
1764974990.4430764,0,0,217,27.125
1764974990.4470744,0,0,450,56.250
1764974990.4562886,0,0,-1177,-147.125
1764974990.459107,0,0,-564,-70.500
1764974990.4630775,0,0,237,29.625
1764974990.467073,0,0,456,57.000
1764974990.4710793,0,1,254,31.750
1764974990.4750774,1,0,-1784,-223.000
1764974990.4790816,0,0,-1036,-129.500
1764974990.4830642,0,0,131,16.375
1764974990.4870584,0,0,464,58.000
1764974990.4910812,1,1,419,52.375
1764974990.4950783,0,0,-1400,-175.000
1764974990.499085,0,0,-810,-101.250
1764974990.5030744,0,0,213,26.625
1764974990.5070717,0,0,501,62.625
1764974990.511077,1,1,404,50.500
1764974990.5150747,0,0,-1585,-198.125
1764974990.5190828,0,0,-1021,-127.625
1764974990.52308,0,0,173,21.625
1764974990.5270667,0,0,514,64.250
1764974990.5310638,1,1,467,58.375
1764974990.5350583,0,1,-1423,-177.875
1764974990.539073,0,0,-929,-116.125
1764974990.5430787,0,0,217,27.125
1764974990.5470765,0,0,545,68.125
1764974990.5510626,1,1,539,67.375
1764974990.5550582,0,0,-1147,-143.375
1764974990.5590737,0,0,-865,-108.125
1764974990.5630782,0,0,245,30.625
1764974990.5670745,0,0,561,70.125
1764974990.571074,1,1,517,64.625
1764974990.5750735,0,0,-1378,-172.250
1764974990.579077,0,0,-1172,-146.500
1764974990.5830748,0,0,169,21.125
1764974990.5870748,0,0,559,69.875
1764974990.5910792,1,1,558,69.750
1764974990.5950716,0,0,-1254,-156.750
1764974990.5990787,0,0,-1171,-146.375
1764974990.6030617,0,0,189,23.625
1764974990.60706,0,0,587,73.375
1764974990.6110728,1,1,644,80.500
1764974990.6150696,0,0,-713,-89.125
1764974990.619077,0,0,-858,-107.250
1764974990.6230683,0,0,287,35.875
1764974990.6270711,0,0,613,76.625
1764974990.6310747,1,1,566,70.750
1764974990.6350684,0,0,-1280,-160.000
1764974990.6390784,0,0,-1417,-177.125
1764974990.6430907,0,0,121,15.125
1764974990.6470778,0,0,600,75.000
1764974990.6510756,1,1,663,82.875
1764974990.655142,0,0,-927,-115.875
1764974990.6590915,0,0,-1300,-162.500
1764974990.6630595,0,0,188,23.500
1764974990.6670597,0,0,629,78.625
1764974990.6710792,1,1,624,78.000
1764974990.6750762,0,0,-1155,-144.375
1764974990.6790798,0,0,-1415,-176.875
1764974990.6830559,0,0,84,10.500
1764974990.6870546,0,0,635,79.375
1764974990.6910846,1,1,521,65.125
1764974990.6950758,0,0,-1239,-154.875
1764974990.6990826,0,0,-1357,-169.625
1764974990.7030692,0,0,89,11.125
1764974990.7070696,0,0,748,93.500
1764974990.7111132,1,1,719,89.875
1764974990.7150824,0,0,-1180,-147.500
1764974990.7190793,0,0,-1333,-166.625
1764974990.7230582,0,0,176,22.000
1764974990.727056,0,0,862,107.750
1764974990.7310731,1,1,962,120.250
1764974990.7350745,0,0,-844,-105.500
1764974990.73908,0,0,-1569,-196.125
1764974990.7430544,0,0,272,34.000
1764974990.747055,0,0,910,113.750
1764974990.7510734,1,1,923,115.375
1764974990.755072,1,1,-1071,-133.875
1764974990.7590795,0,0,-1322,-165.250
1764974990.7630696,0,0,204,25.500
1764974990.7670677,0,0,952,119.000
1764974990.7710683,1,1,972,121.500
1764974990.7750695,0,0,-1048,-131.000
1764974990.7790768,0,0,-1305,-163.125
1764974990.7830687,0,0,243,30.375
1764974990.787069,0,0,1049,131.125
1764974990.794707,0,0,-588,-73.500
1764974990.7965927,0,0,-1575,-196.875
1764974990.799066,0,0,-1575,-196.875
1764974990.8030632,0,0,285,35.625
1764974990.8070586,0,0,1071,133.875
1764974990.8110588,1,1,873,109.125
1764974990.815052,0,0,-1176,-147.000
1764974990.8190632,0,0,-1278,-159.750
1764974990.823058,0,0,298,37.250
1764974990.8270552,0,0,1274,159.250
1764974990.831073,1,1,1478,184.750
1764974990.8350718,0,0,-177,-22.125
1764974990.8390791,0,0,-1776,-222.000
1764974990.843072,0,0,471,58.875
1764974990.84707,0,0,1325,165.625
1764974990.8510602,1,1,1348,168.500
1764974990.855173,1,1,-956,-119.500
1764974990.860126,0,0,-1282,-160.250
1764974990.8636634,0,0,1387,173.375
1764974990.8671014,0,0,1387,173.375
1764974990.8710735,1,1,1594,199.250
1764974990.8750553,0,0,-225,-28.125
1764974990.879069,0,0,-1571,-196.375
1764974990.883078,0,0,1446,180.750
1764974990.8870733,0,0,1662,207.750
1764974990.8910606,1,1,130,16.250
1764974990.8950531,0,0,-1859,-232.375
1764974990.8990643,0,0,472,59.000
1764974990.9030726,0,0,1451,181.375
1764974990.9070742,0,0,1672,209.000
1764974990.9110787,1,1,208,26.000
1764974990.915078,0,0,-1907,-238.375
1764974990.9190788,0,0,399,49.875
1764974990.923057,0,0,1430,178.750
1764974990.9270573,0,0,1633,204.125
1764974990.931078,1,1,-186,-23.250
1764974990.9350715,1,0,-1536,-192.000
1764974990.9390733,0,0,274,34.250
1764974990.9430537,0,0,1434,179.250
1764974990.947052,0,0,1698,212.250
1764974990.9510765,1,1,97,12.125
1764974990.9550734,0,0,-1683,-210.375
1764974990.959073,0,0,299,37.375
1764974990.9630527,0,0,1466,183.250
1764974990.9670506,0,0,1751,218.875
1764974990.9710748,1,1,407,50.875
1764974990.975071,0,0,-1885,-235.625
1764974990.9790757,0,0,275,34.375
1764974990.983066,0,0,1470,183.750
1764974990.9870687,0,0,1782,222.750
1764974990.9910722,1,1,832,104.000
1764974990.99507,0,0,-1768,-221.000
1764974990.9990785,0,0,355,44.375
1764974991.0030704,0,0,1482,185.250
1764974991.0070682,0,0,1769,221.125
1764974991.0110672,1,1,726,90.750
1764974991.01507,0,0,-1926,-240.750
1764974991.0190778,0,0,224,28.000
1764974991.0230687,0,0,1438,179.750
1764974991.0270643,0,0,1743,217.875
1764974991.0310702,1,1,502,62.750
1764974991.0350697,0,0,-1726,-215.750
1764974991.0390787,0,0,54,6.750
1764974991.0430686,0,0,1406,175.750
1764974991.0470667,0,0,1753,219.125
1764974991.05107,1,1,522,65.250
1764974991.0551426,0,0,-1736,-217.000
1764974991.0590885,0,0,-18,-2.250
1764974991.0630555,0,0,1412,176.500
1764974991.0670533,0,0,1785,223.125
1764974991.0710707,1,1,644,80.500
1764974991.0750668,0,0,-1659,-207.375
1764974991.0790734,0,0,-91,-11.375
1764974991.083055,0,0,1417,177.125
1764974991.0870516,0,0,1818,227.250
1764974991.091072,1,1,796,99.500
1764974991.0950685,0,0,-1706,-213.250
1764974991.099072,0,0,-130,-16.250
1764974991.103054,0,0,1423,177.875
1764974991.1070552,0,0,1834,229.250
1764974991.1110635,1,1,716,89.500
1764974991.1150615,0,0,-1545,-193.125
1764974991.1190603,0,0,-219,-27.375
1764974991.123056,0,0,1431,178.875
1764974991.1270523,0,0,1878,234.750
1764974991.1310706,1,1,911,113.875
1764974991.1350646,0,0,-1580,-197.500
1764974991.1390684,0,0,-253,-31.625
1764974991.1430712,0,0,1444,180.500
1764974991.1470587,0,0,1899,237.375
1764974991.1510737,1,1,803,100.375
1764974991.1550663,0,0,-1471,-183.875
1764974991.1590714,0,0,-382,-47.750
1764974991.1630535,0,0,1451,181.375
1764974991.1670547,0,0,1954,244.250
1764974991.1710727,1,1,1045,130.625
1764974991.175066,0,0,-1436,-179.500
1764974991.1790705,0,0,-389,-48.625
1764974991.1830642,0,0,1479,184.875
1764974991.1870685,0,0,2001,250.125
1764974991.191071,1,1,1438,179.750
1764974991.1950655,0,0,-1637,-204.625
1764974991.1990733,0,0,-309,-38.625
1764974991.2030668,0,0,1497,187.125
1764974991.2070682,0,0,1997,249.625
1764974991.2110682,1,1,1325,165.625
1764974991.2150662,0,0,-1401,-175.125
1764974991.2190726,0,0,-506,-63.250
1764974991.2230637,0,0,1450,181.250
1764974991.227064,0,0,2002,250.250
1764974991.231069,1,1,1610,201.250
1764974991.2350674,0,0,-1412,-176.500
1764974991.239076,0,0,-386,-48.250
1764974991.2430632,0,0,1471,183.875
1764974991.2470627,0,0,1983,247.875
1764974991.2510674,1,1,1192,149.000
1764974991.2551315,0,0,-1214,-151.750
1764974991.2590857,0,0,-785,-98.125
1764974991.2630584,0,0,1378,172.250
1764974991.267051,0,0,2007,250.875
1764974991.2710662,1,1,1429,178.625
1764974991.2750654,0,0,-1197,-149.625
1764974991.2790723,0,0,-790,-98.750
1764974991.28305,0,0,1399,174.875
1764974991.2870467,0,0,2035,254.375
1764974991.291065,1,1,1416,177.000
1764974991.2950678,0,0,-1143,-142.875
1764974991.299075,0,0,-846,-105.750
1764974991.3030672,0,0,1387,173.375
1764974991.3070645,0,0,2072,259.000
1764974991.3110688,1,1,1583,197.875
1764974991.3150668,0,0,-1103,-137.875
1764974991.319082,0,0,-866,-108.250
1764974991.323072,0,0,1398,174.750
1764974991.3270643,0,0,2099,262.375
1764974991.3310554,1,1,1623,202.875
1764974991.3350494,0,0,-1076,-134.500
1764974991.3390648,0,0,-909,-113.625
1764974991.3430676,0,0,1376,172.000
1764974991.3470669,0,0,2105,263.125
1764974991.3510568,1,1,1271,158.875
1764974991.3550475,0,0,-1230,-153.750
1764974991.3590631,0,0,-921,-115.125
1764974991.3630707,0,0,1403,175.375
1764974991.3670666,0,0,2222,277.750
1764974991.3710628,1,1,1698,212.250
1764974991.3750606,0,0,-1100,-137.500
1764974991.3790686,0,0,-912,-114.000
1764974991.3830645,0,0,1455,181.875
1764974991.3870637,0,0,2294,286.750
1764974991.3910651,1,1,2110,263.750
1764974991.3950624,0,0,-891,-111.375
1764974991.3990684,0,0,-1031,-128.875
1764974991.4030652,0,0,1498,187.250
1764974991.4070647,0,0,2290,286.250
1764974991.411066,1,1,1894,236.750
1764974991.4150615,0,0,-1026,-128.250
1764974991.4190693,0,0,-989,-123.625
1764974991.4230642,0,0,1382,172.750
1764974991.427063,0,0,2292,286.500
1764974991.4310675,1,1,1944,243.000
1764974991.4350617,0,0,-964,-120.500
1764974991.4390693,0,0,-1001,-125.125
1764974991.4430616,0,0,1389,173.625
1764974991.4470627,0,0,2340,292.500
1764974991.4510646,1,1,2211,276.375
1764974991.4603539,0,0,1368,171.000
1764974991.463094,0,0,1368,171.000
1764974991.4670691,0,0,2301,287.625
1764974991.471064,1,1,1325,165.625
1764974991.4750493,0,0,-1240,-155.000
1764974991.479057,0,0,-1041,-130.125
1764974991.4830644,0,0,1409,176.125
1764974991.4870613,0,0,2525,315.625
1764974991.491053,1,1,2509,313.625
1764974991.495049,0,0,-365,-45.625
1764974991.4990594,0,0,1521,190.125
1764974991.503064,0,0,2544,318.000
1764974991.5070624,0,0,2532,316.500
1764974991.5110703,1,1,-264,-33.000
1764974991.5150642,0,0,-1382,-172.750
1764974991.5190728,0,0,1444,180.500
1764974991.5230687,0,0,2503,312.875
1764974991.5270662,0,0,2408,301.000
1764974991.5310574,1,1,-609,-76.125
1764974991.5350492,0,0,-1112,-139.000
1764974991.53906,0,0,1314,164.250
1764974991.5430622,0,0,2482,310.250
1764974991.5470626,0,0,2461,307.625
1764974991.5510552,1,1,-476,-59.500
1764974991.5550475,0,0,-1151,-143.875
1764974991.5590599,0,0,1311,163.875
1764974991.5630672,0,0,2495,311.875
1764974991.5670602,0,0,2541,317.625
1764974991.5710611,1,1,-233,-29.125
1764974991.5750632,0,0,-1308,-163.500
1764974991.57907,0,0,1227,153.375
1764974991.58306,0,0,2472,309.000
1764974991.587058,0,0,2440,305.000
1764974991.5910623,1,1,-570,-71.250
1764974991.5950594,0,0,-1169,-146.125
1764974991.5990655,0,0,1150,143.750
1764974991.6030467,0,0,2487,310.875
1764974991.6070435,0,0,2436,304.500
1764974991.6110597,1,1,-654,-81.750
1764974991.6150582,0,0,-1210,-151.250
1764974991.6190643,0,0,1102,137.750
1764974991.6230595,0,0,2533,316.625
1764974991.6270614,0,0,2538,317.250
1764974991.6310601,1,1,-517,-64.625
1764974991.6350555,0,0,-1216,-152.000
1764974991.6390674,0,0,1086,135.750
1764974991.6430771,0,0,2586,323.250
1764974991.6470628,0,0,2669,333.625
1764974991.6510587,1,1,-260,-32.500
1764974991.6550546,0,0,-1301,-162.625
1764974991.6591346,0,0,1073,134.125
1764974991.6630738,0,0,2627,328.375
1764974991.6670618,0,0,2840,355.000
1764974991.6710546,1,1,268,33.500
1764974991.6750443,0,0,-1518,-189.750
1764974991.6790557,0,0,1116,139.500
1764974991.6830642,0,0,2646,330.750
1764974991.687061,0,0,2901,362.625
1764974991.6910503,1,1,539,67.375
1764974991.6950414,0,0,-1621,-202.625
1764974991.6990569,0,0,988,123.500
1764974991.7030604,0,0,2606,325.750
1764974991.7070649,0,0,2869,358.625
1764974991.711073,1,1,434,54.250
1764974991.7150626,0,0,-1562,-195.250
1764974991.7190642,0,0,837,104.625
1764974991.7230456,0,0,2567,320.875
1764974991.7270463,0,0,2655,331.875
1764974991.731069,1,1,-398,-49.750
1764974991.7350612,0,0,-1226,-153.250
1764974991.7390583,0,0,779,97.375
1764974991.7430422,0,0,2652,331.500
1764974991.747045,0,0,2936,367.000
1764974991.751063,1,1,308,38.500
1764974991.7550583,0,0,-1478,-184.750
1764974991.759065,0,0,822,102.750
1764974991.7630575,0,0,2711,338.875
1764974991.7670546,0,0,3135,391.875
1764974991.771056,1,1,1157,144.625
1764974991.7750561,0,0,-1776,-222.000
1764974991.7790632,0,0,852,106.500
1764974991.7830527,0,0,2708,338.500
1764974991.787054,0,0,3178,397.250
1764974991.7947333,0,0,-1775,-221.875
