Timestamp,LO_plus,LO_minus,Raw_ADC,Voltage_mV
1764842378.4313083,1,1,5010,626.250
1764842378.433191,0,0,5010,626.250
1764842378.4349084,0,0,2556,319.500
1764842378.4374528,0,0,2556,319.500
1764842378.441461,0,0,-1402,-175.250
1764842378.4454763,0,0,1950,243.750
1764842378.4494529,1,1,4692,586.500
1764842378.4534466,0,0,2867,358.375
1764842378.457448,0,0,-1359,-169.875
1764842378.4614532,0,0,-1585,-198.125
1764842378.4654818,0,0,1705,213.125
1764842378.4694676,1,1,4567,570.875
1764842378.4734523,0,0,3154,394.250
1764842378.477456,0,0,-1378,-172.250
1764842378.4814527,0,0,-1642,-205.250
1764842378.4855096,0,0,1616,202.000
1764842378.4894567,1,1,4517,564.625
1764842378.4934442,0,0,3418,427.250
1764842378.497453,0,0,-1341,-167.625
1764842378.5014908,0,0,-1700,-212.500
1764842378.5054722,0,0,1455,181.875
1764842378.5094473,1,1,4427,553.375
1764842378.513453,0,0,3695,461.875
1764842378.5174675,0,0,-1508,-188.500
1764842378.5214581,0,0,-1610,-201.250
1764842378.5254538,0,0,1686,210.750
1764842378.5294495,1,1,4524,565.500
1764842378.533442,0,0,3933,491.625
1764842378.5374453,0,0,-1349,-168.625
1764842378.5414443,0,0,-1730,-216.250
1764842378.545442,0,0,1431,178.875
1764842378.5494504,1,1,4373,546.625
1764842378.5534482,0,0,4147,518.375
1764842378.5574505,0,0,-1449,-181.125
1764842378.5614514,0,0,-1716,-214.500
1764842378.565451,0,0,1509,188.625
1764842378.5694497,1,1,4392,549.000
1764842378.5734453,0,0,4355,544.375
1764842378.5775964,0,0,-1296,-162.000
1764842378.5814562,0,0,-1784,-223.000
1764842378.5854769,0,0,1274,159.250
1764842378.5894892,1,1,4243,530.375
1764842378.5934856,0,0,4525,565.625
1764842378.5974574,0,0,-1204,-150.500
1764842378.6014452,0,0,-1784,-223.000
1764842378.6054418,0,0,1016,127.000
1764842378.6094546,1,1,4073,509.125
1764842378.613459,0,0,4678,584.750
1764842378.6174524,0,0,-1087,-135.875
1764842378.6214447,0,0,-1757,-219.625
1764842378.625512,0,0,743,92.875
1764842378.629459,1,1,3900,487.500
1764842378.633489,0,0,4831,603.875
1764842378.6374602,0,0,-1107,-138.375
1764842378.6414425,0,0,-1849,-231.125
1764842378.6454403,0,0,939,117.375
1764842378.6494513,1,1,4004,500.500
1764842378.653512,0,0,4998,624.750
1764842378.6574616,0,0,-960,-120.000
1764842378.6614423,0,0,-1804,-225.500
1764842378.6654408,0,0,700,87.500
1764842378.6694531,1,1,3843,480.375
1764842378.6734939,0,0,5100,637.500
1764842378.6774576,0,0,-922,-115.250
1764842378.681442,0,0,-1881,-235.125
1764842378.6854393,0,0,741,92.625
1764842378.6894522,1,1,3849,481.125
1764842378.6934965,0,0,5206,650.750
1764842378.6974587,0,0,-785,-98.125
1764842378.701442,0,0,-1864,-233.000
1764842378.7054396,0,0,613,76.625
1764842378.7094524,1,1,3751,468.875
1764842378.7134967,0,0,5283,660.375
1764842378.7174585,0,0,-625,-78.125
1764842378.7214417,0,0,-1868,-233.500
1764842378.7254395,0,0,477,59.625
1764842378.7294526,1,1,3645,455.625
1764842378.7334516,0,0,5326,665.750
1764842378.7374496,0,0,-421,-52.625
1764842378.7414412,0,0,-1717,-214.625
1764842378.7454388,0,0,148,18.500
1764842378.74945,1,1,3408,426.000
1764842378.7534513,0,0,5329,666.125
1764842378.7574944,0,0,-198,-24.750
1764842378.7614477,0,0,-1581,-197.625
1764842378.7654397,0,0,-220,-27.500
1764842378.7694516,1,1,3146,393.250
1764842378.77345,0,0,5314,664.250
1764842378.7774491,0,0,17,2.125
1764842378.7814426,0,0,-1661,-207.625
1764842378.785439,0,0,-157,-19.625
1764842378.7894452,1,1,3197,399.625
1764842378.7934766,0,0,5383,672.875
1764842378.7974498,0,0,271,33.875
1764842378.8014398,0,0,-1711,-213.875
1764842378.8054345,0,0,-275,-34.375
1764842378.8094501,1,1,3099,387.375
1764842378.8134964,0,0,5386,673.250
1764842378.8174622,0,0,578,72.250
1764842378.8214426,0,0,-2220,-277.500
1764842378.825502,0,0,181,22.625
1764842378.82945,1,1,3422,427.750
1764842378.8334389,0,0,5492,686.500
1764842378.8374496,0,0,823,102.875
1764842378.8414526,0,0,-1824,-228.000
1764842378.8454528,0,0,-436,-54.500
1764842378.8494427,1,1,2950,368.750
1764842378.8534381,0,0,5333,666.625
1764842378.8574476,0,0,1105,138.125
1764842378.8614845,0,0,-1707,-213.375
1764842378.8654718,0,0,-701,-87.625
1764842378.869444,1,1,2724,340.500
1764842378.8734367,0,0,5252,656.500
1764842378.8774474,0,0,1391,173.875
1764842378.8814826,0,0,-1873,-234.125
1764842378.8854716,0,0,-682,-85.250
1764842378.8894498,1,1,2736,342.000
1764842378.8934367,0,0,5248,656.000
1764842378.897447,0,0,1692,211.500
1764842378.9014812,0,0,-1797,-224.625
1764842378.9054697,0,0,-862,-107.750
1764842378.9094443,1,1,2572,321.500
1764842378.9134374,0,0,5173,646.625
1764842378.9174466,0,0,1955,244.375
1764842378.9214456,0,0,-1741,-217.625
1764842378.925549,0,0,-1023,-127.875
1764842378.9295156,1,1,2411,301.375
1764842378.9335716,0,0,5105,638.125
1764842378.9375303,0,0,2030,253.750
1764842378.9415128,0,0,-1112,-139.000
1764842378.94551,0,0,-1674,-209.250
1764842378.9495256,1,1,1360,170.000
1764842378.9535396,0,0,4624,578.000
1764842378.9575574,0,0,2579,322.375
1764842378.9615104,0,0,-2227,-278.375
1764842378.9655085,0,0,-827,-103.375
1764842378.9695232,1,1,2627,328.375
1764842378.9735665,0,0,5202,650.250
1764842378.9786541,0,0,2923,365.375
1764842378.9818542,0,0,-2115,-264.375
1764842378.9855852,0,0,-1100,-137.500
1764842378.9895322,1,1,2354,294.250
1764842378.99357,0,0,5044,630.500
1764842378.9975321,0,0,3145,393.125
1764842379.0015192,0,0,-1782,-222.750
1764842379.0055177,0,0,-1348,-168.500
1764842379.0095212,1,1,2075,259.375
1764842379.0135102,0,0,4880,610.000
1764842379.0175202,0,0,3379,422.375
1764842379.0215192,0,0,-1671,-208.875
1764842379.0257173,0,0,-1472,-184.000
1764842379.0295753,1,1,1917,239.625
1764842379.033605,0,0,4776,597.000
1764842379.0375626,0,0,3593,449.125
1764842379.0415568,0,0,-1338,-167.250
1764842379.0455525,0,0,-1728,-216.000
1764842379.0495553,1,1,4461,557.625
1764842379.0535505,0,0,3837,479.625
1764842379.0575645,0,0,-1914,-239.250
1764842379.061555,0,0,-1451,-181.375
1764842379.06555,0,0,1940,242.500
1764842379.0695534,1,1,4747,593.375
1764842379.0735502,0,0,4077,509.625
1764842379.07757,0,0,-1266,-158.250
1764842379.0815504,0,0,-1753,-219.125
1764842379.0855498,0,0,1160,145.000
1764842379.0895517,1,1,4320,540.000
1764842379.0935524,0,0,4252,531.500
1764842379.097552,0,0,-1288,-161.000
1764842379.1015525,0,0,-1780,-222.500
1764842379.1055539,0,0,1248,156.000
1764842379.1095996,1,1,4351,543.875
1764842379.113557,0,0,4467,558.375
1764842379.1175547,0,0,-1232,-154.000
1764842379.1215363,0,0,-1778,-222.250
1764842379.125575,0,0,1025,128.125
1764842379.1295545,1,1,4201,525.125
1764842379.1335502,0,0,4638,579.750
1764842379.1375506,0,0,-1117,-139.625
1764842379.1415362,0,0,-1714,-214.250
1764842379.1455379,0,0,610,76.250
1764842379.1495554,1,1,3944,493.000
1764842379.1535556,0,0,4796,599.500
1764842379.1576061,0,0,-1049,-131.125
1764842379.1615555,0,0,-1726,-215.750
1764842379.165551,0,0,568,71.000
1764842379.169556,1,1,3912,489.000
1764842379.1736019,0,0,4977,622.125
1764842379.177563,0,0,-907,-113.375
1764842379.1815403,0,0,-1670,-208.750
1764842379.1855373,0,0,333,41.625
1764842379.189556,1,1,3754,469.250
1764842379.1936004,0,0,5124,640.500
1764842379.1975613,0,0,-1002,-125.250
1764842379.2015352,0,0,-1896,-237.000
1764842379.20554,0,0,775,96.875
1764842379.2095554,1,1,4023,502.875
1764842379.2135513,0,0,5339,667.375
1764842379.2175465,0,0,-851,-106.375
1764842379.2215352,0,0,-1919,-239.875
1764842379.2256947,0,0,661,82.625
1764842379.229563,1,1,3922,490.250
1764842379.2335408,0,0,5421,677.625
1764842379.237556,0,0,-636,-79.500
1764842379.2416055,0,0,-1712,-214.000
1764842379.2456105,0,0,210,26.250
1764842379.249556,1,1,3602,450.250
1764842379.2535408,0,0,5433,679.125
1764842379.2575498,0,0,-476,-59.500
1764842379.2615485,0,0,-1668,-208.500
1764842379.2655528,0,0,45,5.625
1764842379.269542,1,1,3476,434.500
1764842379.2736022,0,0,5492,686.500
1764842379.2775652,0,0,-238,-29.750
1764842379.281534,0,0,-1579,-197.375
1764842379.2855334,0,0,-215,-26.875
1764842379.2895396,1,1,3275,409.375
1764842379.2936,0,0,5508,688.500
1764842379.2975564,0,0,-13,-1.625
1764842379.3015356,0,0,-1903,-237.875
1764842379.3055344,0,0,20,2.500
1764842379.3095515,1,1,3438,429.750
1764842379.313551,0,0,5619,702.375
1764842379.317549,0,0,246,30.750
1764842379.3215313,0,0,-1710,-213.750
1764842379.325569,0,0,-325,-40.625
1764842379.3295548,1,1,3162,395.250
1764842379.3335562,0,0,5567,695.875
1764842379.3376038,0,0,514,64.250
1764842379.341556,0,0,-1758,-219.750
1764842379.345545,0,0,-442,-55.250
1764842379.34955,1,1,3062,382.750
1764842379.3535988,0,0,5558,694.750
1764842379.357561,0,0,773,96.625
1764842379.3615334,0,0,-2254,-281.750
1764842379.3655345,0,0,14,1.750
1764842379.3695514,1,1,3406,425.750
1764842379.3736017,0,0,5684,710.500
1764842379.3775632,0,0,1021,127.625
1764842379.381534,0,0,-1365,-170.625
1764842379.3855314,0,0,-1053,-131.625
1764842379.3895526,1,1,2495,311.875
1764842379.3935814,0,0,5358,669.750
1764842379.3975742,0,0,1268,158.500
1764842379.4015355,0,0,-1284,-160.500
1764842379.4055345,0,0,-1255,-156.875
1764842379.4095502,1,1,2286,285.750
1764842379.4135478,0,0,5295,661.875
1764842379.4175472,0,0,1574,196.750
1764842379.4215307,0,0,-1127,-140.875
1764842379.4311519,1,1,5067,633.375
1764842379.433591,0,0,5067,633.375
1764842379.437564,0,0,1913,239.125
1764842379.4415348,0,0,-1238,-154.750
1764842379.4455369,0,0,-1585,-198.125
1764842379.4495397,1,1,1859,232.375
1764842379.4535923,0,0,5152,644.000
1764842379.4575498,0,0,2274,284.250
1764842379.4615362,0,0,-1304,-163.000
1764842379.4655352,0,0,-1660,-207.500
1764842379.4695528,1,1,1602,200.250
1764842379.4736035,0,0,5030,628.750
1764842379.4775565,0,0,2568,321.000
1764842379.4815304,0,0,-1278,-159.750
1764842379.4855378,0,0,-1672,-209.000
1764842379.4895518,1,1,913,114.125
1764842379.4935977,0,0,4642,580.250
1764842379.4975598,0,0,2824,353.000
1764842379.5015323,0,0,-1326,-165.750
1764842379.5055356,0,0,-1686,-210.750
1764842379.5095541,1,1,991,123.875
1764842379.513598,0,0,4710,588.750
1764842379.517553,0,0,3225,403.125
1764842379.5215306,0,0,-1371,-171.375
1764842379.5255342,0,0,-1713,-214.125
1764842379.5295503,1,1,1116,139.500
1764842379.533605,0,0,4787,598.375
1764842379.5375602,0,0,3586,448.250
1764842379.541533,0,0,-1352,-169.000
1764842379.5455313,0,0,-1692,-211.500
1764842379.549553,1,1,796,99.500
1764842379.5535483,0,0,4574,571.750
1764842379.5575469,0,0,3853,481.625
1764842379.561529,0,0,-1380,-172.500
1764842379.5655303,0,0,-1758,-219.750
1764842379.5695515,1,1,1118,139.750
1764842379.5735488,0,0,4772,596.500
1764842379.577617,0,0,4235,529.375
1764842379.5815551,0,0,-1390,-173.750
1764842379.5855424,0,0,-1803,-225.375
1764842379.5895467,1,1,1167,145.875
1764842379.5935464,0,0,4779,597.375
1764842379.5975451,0,0,4527,565.875
1764842379.6015272,0,0,-1634,-204.250
1764842379.6055288,0,0,-1551,-193.875
1764842379.609551,1,1,1929,241.125
1764842379.6135488,0,0,5173,646.625
1764842379.617547,0,0,4836,604.500
1764842379.6215498,0,0,-1530,-191.250
1764842379.6255953,0,0,-1704,-213.000
1764842379.6296265,1,1,1685,210.625
1764842379.633557,0,0,4984,623.000
1764842379.6375465,0,0,4984,623.000
1764842379.6415417,0,0,-1434,-179.250
1764842379.6455529,0,0,-1738,-217.250
1764842379.6495404,1,1,1608,201.000
1764842379.6535287,0,0,4895,611.875
1764842379.6575394,0,0,5037,629.625
1764842379.66158,0,0,-1082,-135.250
1764842379.6655731,0,0,-196,-24.500
1764842379.6695411,1,1,3632,454.000
1764842379.6735296,0,0,4947,618.375
1764842379.677543,0,0,-1172,-146.500
1764842379.6815948,0,0,-1920,-240.000
1764842379.6855705,0,0,826,103.250
1764842379.6895437,1,1,4376,547.000
1764842379.6935296,0,0,5416,677.000
1764842379.6975408,0,0,-1016,-127.000
1764842379.7016263,0,0,-1983,-247.875
1764842379.7055767,0,0,1104,138.000
1764842379.7095394,1,1,4521,565.125
1764842379.7135296,0,0,5595,699.375
1764842379.717546,0,0,-863,-107.875
1764842379.7215474,0,0,-1937,-242.125
1764842379.7255998,0,0,1176,147.000
1764842379.7295895,1,1,4514,564.250
1764842379.7335315,0,0,5720,715.000
1764842379.737542,0,0,-714,-89.250
1764842379.741583,0,0,-2079,-259.875
1764842379.745573,0,0,824,103.000
1764842379.74954,1,1,4251,531.375
1764842379.7535295,0,0,5731,716.375
1764842379.7575436,0,0,-593,-74.125
1764842379.7615914,0,0,-2127,-265.875
1764842379.7655776,0,0,620,77.500
1764842379.7695446,1,1,4079,509.875
1764842379.773532,0,0,5788,723.500
1764842379.7775419,0,0,-392,-49.000
1764842379.7816164,0,0,-2161,-270.125
1764842379.7855742,0,0,479,59.875
1764842379.7895389,1,1,3947,493.375
1764842379.7935314,0,0,5823,727.875
1764842379.7975447,0,0,-204,-25.500
1764842379.8015797,0,0,-2178,-272.250
1764842379.8055725,0,0,448,56.000
1764842379.8095467,0,1,3901,487.625
1764842379.813531,0,0,5867,733.375
1764842379.81754,0,0,-21,-2.625
1764842379.8215933,0,0,-1864,-233.000
1764842379.8255644,0,0,-111,-13.875
1764842379.8296578,1,1,3466,433.250
1764842379.8335576,0,0,5779,722.375
1764842379.8375454,0,0,204,25.500
1764842379.841526,0,0,-2140,-267.500
1764842379.8455286,0,0,-41,-5.125
1764842379.8495457,0,0,3504,438.000
1764842379.853605,0,0,5838,729.750
1764842379.8575552,0,0,451,56.375
1764842379.8615294,0,0,-1994,-249.250
1764842379.865526,0,0,-274,-34.250
1764842379.8695412,0,0,3301,412.625
1764842379.8735454,0,0,5797,724.625
1764842379.8775427,0,0,696,87.000
1764842379.8815594,0,0,-1945,-243.125
1764842379.8855941,0,0,-453,-56.625
1764842379.8895442,0,0,3136,392.000
1764842379.8935292,1,0,5759,719.875
1764842379.8975434,0,0,972,121.500
1764842379.9015427,0,0,-1966,-245.750
1764842379.9055903,0,0,-558,-69.750
1764842379.909542,0,0,3037,379.625
1764842379.9135299,1,0,5730,716.250
1764842379.917542,0,0,1249,156.125
1764842379.921544,0,0,-1731,-216.375
1764842379.925602,0,0,-894,-111.750
1764842379.9295864,0,0,2714,339.250
1764842379.9335284,1,1,5607,700.875
1764842379.9375405,0,0,1558,194.750
1764842379.941542,0,0,-2122,-265.250
1764842379.9455447,0,0,-731,-91.375
1764842379.9495318,0,0,2865,358.125
1764842379.9535272,1,1,5663,707.875
1764842379.957542,0,0,1895,236.875
1764842379.9615438,0,0,-2247,-280.875
1764842379.9655952,0,0,-310,-38.750
1764842379.9695454,0,0,3212,401.500
1764842379.9735265,1,1,5766,720.750
1764842379.9775827,0,0,2124,265.500
1764842379.9818757,0,0,-2103,-262.875
1764842379.9856114,0,0,-932,-116.500
1764842379.98955,0,0,2648,331.000
1764842379.9935358,1,1,5504,688.000
1764842379.9975421,0,0,2382,297.750
1764842380.0015378,0,0,-2230,-278.750
1764842380.00559,0,0,-858,-107.250
1764842380.0095534,0,0,2701,337.625
1764842380.0135362,1,1,5491,686.375
1764842380.0175388,0,0,2644,330.500
1764842380.0215437,0,0,-2220,-277.500
1764842380.0255432,0,0,-881,-110.125
1764842380.0296435,0,0,2666,333.250
1764842380.0335865,1,0,5431,678.875
1764842380.037541,0,0,2926,365.750
1764842380.0415235,0,0,-2182,-272.750
1764842380.0456262,0,0,-991,-123.875
1764842380.0496044,0,0,2535,316.875
1764842380.0536091,1,1,5323,665.375
1764842380.0575628,0,0,3136,392.000
1764842380.0615263,0,0,-2153,-269.125
1764842380.0655272,0,0,-976,-122.000
1764842380.0695448,0,0,2542,317.750
1764842380.0735414,1,1,5280,660.000
1764842380.0775385,0,0,3359,419.875
1764842380.081524,0,0,-1998,-249.750
1764842380.085525,0,0,-1327,-165.875
1764842380.0895452,0,0,2160,270.000
1764842380.0935402,1,1,5061,632.625
1764842380.097546,0,0,3578,447.250
1764842380.1015944,0,0,-1835,-229.375
1764842380.1055508,0,0,-1468,-183.500
1764842380.109531,0,0,1974,246.750
1764842380.1135259,1,1,4930,616.250
1764842380.1175416,0,0,3788,473.500
1764842380.1215386,0,0,-1773,-221.625
1764842380.125539,0,0,-1547,-193.375
1764842380.129535,0,0,1857,232.125
1764842380.133566,1,1,4832,604.000
1764842380.1375408,0,0,4027,503.375
1764842380.1415458,0,0,-1634,-204.250
1764842380.1455894,0,0,-1663,-207.875
1764842380.1495392,0,0,1672,209.000
1764842380.1535265,1,1,4695,586.875
1764842380.1575394,0,0,4231,528.875
1764842380.1615732,0,0,-1443,-180.375
1764842380.1655655,0,0,-1772,-221.500
1764842380.169535,0,0,1453,181.625
1764842380.173527,1,1,4547,568.375
1764842380.1775334,0,0,4457,557.125
1764842380.1815379,0,0,-1681,-210.125
1764842380.1855972,0,0,-1674,-209.250
1764842380.1895382,0,0,1634,204.250
1764842380.1935241,1,1,4606,575.750
1764842380.1975348,0,0,4600,575.000
1764842380.2015376,0,0,-1135,-141.875
1764842380.2055373,0,0,-1692,-211.500
1764842380.209531,0,0,577,72.125
1764842380.2135885,1,1,3980,497.500
1764842380.2175472,0,0,4700,587.500
1764842380.2215245,0,0,-1235,-154.375
1764842380.2255237,0,0,-1845,-230.625
1764842380.229609,0,0,1034,129.250
1764842380.2336302,1,1,4241,530.125
1764842380.237552,0,0,4954,619.250
1764842380.241524,0,0,-1306,-163.250
1764842380.2455263,0,0,-1909,-238.625
1764842380.2495396,0,0,1164,145.500
1764842380.2535455,1,1,4290,536.250
1764842380.2575393,0,0,5112,639.000
1764842380.2615278,0,0,-1026,-128.250
1764842380.2655246,0,0,-1829,-228.625
1764842380.2695377,0,0,736,92.000
1764842380.2735343,1,1,4000,500.000
1764842380.2775426,0,0,5197,649.625
1764842380.2815347,0,0,-1836,-229.500
1764842380.2855337,0,0,636,79.500
1764842380.2895324,0,0,3923,490.375
1764842380.2935212,1,1,5315,664.375
1764842380.2975254,0,0,-779,-97.375
1764842380.3015213,0,0,-1810,-226.250
1764842380.3055232,0,0,459,57.375
1764842380.3095393,0,0,3781,472.625
1764842380.3135347,1,1,5386,673.250
1764842380.3175364,0,0,-658,-82.250
1764842380.3215332,0,0,-1758,-219.750
1764842380.325537,0,0,274,34.250
1764842380.3295414,0,0,3646,455.750
1764842380.333576,1,1,5455,681.875
1764842380.3375442,0,0,-444,-55.500
1764842380.341533,0,0,-1662,-207.750
1764842380.3455396,0,0,10,1.250
1764842380.3495364,0,0,3444,430.500
1764842380.353536,1,1,5465,683.125
1764842380.3575394,0,0,-288,-36.000
1764842380.3615334,0,0,-1606,-200.750
1764842380.3655334,0,0,-158,-19.750
1764842380.369541,0,0,3312,414.000
1764842380.3735363,1,1,5502,687.750
1764842380.3775413,0,0,-124,-15.500
1764842380.3815293,0,0,-1108,-138.500
1764842380.3855321,0,0,-1102,-137.750
1764842380.3895378,0,0,2482,310.250
1764842380.3935351,1,1,5308,663.500
1764842380.3975372,0,0,317,39.625
1764842380.401531,0,0,-2224,-278.000
1764842380.4055336,0,0,218,27.250
1764842380.4095368,0,0,3599,449.875
1764842380.413535,1,1,5766,720.750
1764842380.4175386,0,0,612,76.500
1764842380.4215307,0,0,-2219,-277.375
1764842380.4255323,0,0,-130,-16.250
1764842380.4348326,0,0,5682,710.250
1764842380.4375734,0,0,922,115.250
1764842380.4415445,0,0,-2067,-258.375
1764842380.4455352,0,0,555,69.375
1764842380.4495282,0,0,3793,474.125
1764842380.4535215,1,1,5816,727.000
1764842380.4575348,0,0,1069,133.625
1764842380.4615364,0,0,-2062,-257.750
1764842380.4655356,0,0,-457,-57.125
1764842380.469525,0,0,3021,377.625
1764842380.4735198,1,1,5538,692.250
1764842380.4775345,0,0,1338,167.250
1764842380.481532,0,0,-2282,-285.250
1764842380.4855335,0,0,-326,-40.750
1764842380.489534,0,0,3112,389.000
1764842380.4935312,1,1,5553,694.125
1764842380.4975367,0,0,1592,199.000
1764842380.5015345,0,0,-1938,-242.250
1764842380.5055327,0,0,-770,-96.250
1764842380.509529,0,0,2730,341.250
1764842380.513529,1,1,5389,673.625
1764842380.517532,0,0,1854,231.750
1764842380.52153,0,0,-1426,-178.250
1764842380.5255306,0,0,-1273,-159.125
1764842380.529533,0,0,2227,278.375
1764842380.5335288,1,1,5174,646.750
1764842380.5375655,0,0,2148,268.500
1764842380.5415165,0,0,-1559,-194.875
1764842380.5455184,0,0,-1290,-161.250
1764842380.5495355,0,0,2207,275.875
1764842380.5535364,1,1,5160,645.000
1764842380.5575383,0,0,2442,305.250
1764842380.5615196,0,0,-1366,-170.750
1764842380.5655174,0,0,-1516,-189.500
1764842380.5695353,0,0,1927,240.875
1764842380.5735314,1,1,5024,628.000
1764842380.5775328,0,0,2730,341.250
1764842380.5815156,0,0,-1409,-176.125
1764842380.5855186,0,0,-1581,-197.625
1764842380.5895348,0,0,1835,229.375
1764842380.5935316,1,1,4971,621.375
1764842380.5975285,0,0,3028,378.500
1764842380.6015265,0,0,-1490,-186.250
1764842380.6055331,0,0,-1581,-197.625
1764842380.609537,0,0,1838,229.750
1764842380.6135316,1,1,4955,619.375
1764842380.6175308,0,0,3326,415.750
1764842380.6215298,0,0,-1417,-177.125
1764842380.6255298,0,0,-1703,-212.875
1764842380.6295311,0,0,1510,188.750
1764842380.633604,1,1,4765,595.625
1764842380.6375487,0,0,3611,451.375
1764842380.6415167,0,0,-1975,-246.875
1764842380.645517,0,0,-1422,-177.750
1764842380.649539,0,0,2040,255.000
1764842380.6535356,1,1,5000,625.000
1764842380.6575322,0,0,3905,488.125
1764842380.6615138,0,0,-1839,-229.875
1764842380.665515,0,0,-1563,-195.375
1764842380.669538,0,0,1850,231.250
1764842380.673533,1,1,4867,608.375
1764842380.6775327,0,0,4116,514.500
1764842380.6815257,0,0,-1487,-185.875
1764842380.68553,0,0,-1742,-217.750
1764842380.689533,0,0,1538,192.250
1764842380.6935308,1,1,4663,582.875
1764842380.6975353,0,0,4305,538.125
1764842380.7015297,0,0,-1646,-205.750
1764842380.7055264,0,0,-1724,-215.500
1764842380.7095268,0,0,1580,197.500
1764842380.7135267,1,1,4652,581.500
1764842380.7175317,0,0,4513,564.125
1764842380.7215264,0,0,-1504,-188.000
1764842380.7255268,0,0,-1803,-225.375
1764842380.7295306,0,0,1416,177.000
1764842380.7335305,1,1,4532,566.500
1764842380.7375329,0,0,4677,584.625
1764842380.741527,0,0,-1285,-160.625
1764842380.7455244,0,0,-1830,-228.750
1764842380.7495294,0,0,1110,138.750
1764842380.753526,1,1,4325,540.625
1764842380.7575302,0,0,4827,603.375
1764842380.7615402,0,0,-1278,-159.750
1764842380.765539,0,0,-1876,-234.500
1764842380.769527,0,0,1098,137.250
1764842380.773515,1,1,4290,536.250
1764842380.777526,0,0,4991,623.875
1764842380.78153,0,0,-1069,-133.625
1764842380.7855308,0,0,-1783,-222.875
1764842380.7895176,0,0,697,87.125
1764842380.793513,1,1,4017,502.125
1764842380.7975264,0,0,5109,638.625
1764842380.8015292,0,0,-1153,-144.125
1764842380.8055303,0,0,-1943,-242.875
1764842380.809535,0,0,1111,138.875
1764842380.8135288,1,1,4249,531.125
1764842380.81753,0,0,5306,663.250
1764842380.8215244,0,0,-993,-124.125
1764842380.8255286,0,0,-1985,-248.125
1764842380.8295314,0,0,1000,125.000
1764842380.8336027,1,1,4149,518.625
1764842380.8375583,0,0,5372,671.500
1764842380.8415165,0,0,-859,-107.375
1764842380.8455184,0,0,-1921,-240.125
1764842380.849536,0,0,1148,143.500
1764842380.8535275,1,1,4207,525.875
1764842380.857525,0,0,5474,684.250
1764842380.8615117,0,0,-696,-87.000
1764842380.8655157,0,0,-2017,-252.125
1764842380.8695347,0,0,610,76.250
1764842380.8735301,1,1,3842,480.250
1764842380.877528,0,0,5455,681.875
1764842380.8815236,0,0,-515,-64.375
1764842380.8855305,0,0,-1817,-227.125
1764842380.889533,0,0,294,36.750
1764842380.8935275,1,1,3612,451.500
1764842380.8975265,0,0,-310,-38.750
1764842380.9015288,0,0,-2029,-253.625
1764842380.9055297,0,0,335,41.875
1764842380.9095285,0,0,3625,453.125
1764842380.9135168,1,1,5527,690.875
1764842380.9175177,0,0,-101,-12.625
1764842380.9215097,0,0,-1625,-203.125
1764842380.9255135,0,0,-204,-25.500
1764842380.9295282,0,0,3224,403.000
1764842380.9335287,1,1,5459,682.375
1764842380.937534,0,0,164,20.500
1764842380.941514,0,0,-1873,-234.125
1764842380.945511,0,0,-84,-10.500
1764842380.9495335,0,0,3306,413.250
1764842380.9535286,1,1,5523,690.375
1764842380.957531,0,0,432,54.000
1764842380.9615235,0,0,-1875,-234.375
1764842380.9655275,0,0,-237,-29.625
1764842380.9695284,0,0,3178,397.250
1764842380.9735265,1,1,5506,688.250
1764842380.9775715,0,0,726,90.750
1764842380.9818635,0,0,-2192,-274.000
1764842380.9856105,0,0,-175,-21.875
1764842380.9895399,0,0,3224,403.000
1764842380.9935255,1,1,5528,691.000
1764842380.997531,0,0,978,122.250
1764842381.0015235,0,0,-2072,-259.000
1764842381.0055246,0,0,-382,-47.750
1764842381.0095263,0,0,3046,380.750
1764842381.0135233,1,1,5463,682.875
1764842381.0175276,0,0,1273,159.125
1764842381.0215268,0,0,-2265,-283.125
1764842381.025528,0,0,-81,-10.125
1764842381.0295272,0,0,3274,409.250
1764842381.0335963,1,1,5523,690.375
1764842381.0375445,0,0,1519,189.875
1764842381.0415366,0,0,-2279,-284.875
1764842381.0455306,0,0,-379,-47.375
1764842381.0495286,0,0,3021,377.625
1764842381.0535128,1,1,5412,676.500
1764842381.057526,0,0,1596,199.500
1764842381.0615273,0,0,-1100,-137.500
1764842381.0655255,0,0,-1621,-202.625
1764842381.069526,0,0,1624,203.000
1764842381.0735207,1,1,4822,602.750
1764842381.0775232,0,0,2038,254.750
1764842381.0815277,0,0,-1514,-189.250
1764842381.085524,0,0,-1272,-159.000
1764842381.0895252,0,0,2213,276.625
1764842381.0935216,1,1,5112,639.000
1764842381.0975213,0,0,2456,307.000
1764842381.101511,0,0,-2070,-258.750
1764842381.1055121,0,0,-1023,-127.875
1764842381.1095288,0,0,2469,308.625
1764842381.1135223,1,1,5199,649.875
1764842381.1175272,0,0,2731,341.375
1764842381.1215212,0,0,-1925,-240.625
1764842381.125526,0,0,-1185,-148.125
1764842381.1295304,0,0,2298,287.250
1764842381.1335216,1,1,5094,636.750
1764842381.1375268,0,0,2988,373.500
1764842381.1415246,0,0,-1951,-243.875
1764842381.1455243,0,0,-1241,-155.125
1764842381.149527,0,0,2224,278.000
1764842381.1535256,1,1,5022,627.750
1764842381.1575236,0,0,3241,405.125
1764842381.1615238,0,0,-1818,-227.250
1764842381.1655316,0,0,-1377,-172.125
1764842381.1695244,0,0,2066,258.250
1764842381.173513,1,1,4919,614.875
1764842381.1775243,0,0,3477,434.625
1764842381.1815228,0,0,-1624,-203.000
1764842381.1855245,0,0,-1538,-192.250
1764842381.189516,0,0,1847,230.875
1764842381.1935117,1,1,4775,596.875
1764842381.1975229,0,0,3696,462.000
1764842381.201521,0,0,-1391,-173.875
1764842381.2055218,0,0,-1703,-212.875
1764842381.2095304,0,0,1560,195.000
1764842381.2135265,1,1,4605,575.625
1764842381.2175314,0,0,3921,490.125
1764842381.2215226,0,0,-1363,-170.375
1764842381.2255213,0,0,-1747,-218.375
1764842381.2295206,0,0,1409,176.125
1764842381.2335973,1,1,4503,562.875
1764842381.2375412,0,0,4131,516.375
1764842381.2415123,0,0,-1309,-163.625
1764842381.2455094,0,0,-1769,-221.125
1764842381.2495263,0,0,1289,161.125
1764842381.2535248,1,1,4422,552.750
1764842381.2575252,0,0,4355,544.375
1764842381.2615128,0,0,-1258,-157.250
1764842381.26551,0,0,-1780,-222.500
1764842381.2695246,0,0,1114,139.250
1764842381.2735238,1,1,4300,537.500
1764842381.277528,0,0,4534,566.750
1764842381.2815237,0,0,-1193,-149.125
1764842381.2855258,0,0,-1766,-220.750
1764842381.289516,0,0,917,114.625
1764842381.2935088,1,1,4169,521.125
1764842381.2975209,0,0,4720,590.000
1764842381.3015273,0,0,-1134,-141.750
1764842381.305535,0,0,-1757,-219.625
1764842381.3095138,0,0,759,94.875
1764842381.3135064,1,1,4059,507.375
1764842381.3175247,0,0,4897,612.125
1764842381.321524,0,0,-1073,-134.125
1764842381.3255253,0,0,-1761,-220.125
1764842381.329515,0,0,664,83.000
1764842381.3335075,1,1,3983,497.875
1764842381.3375173,0,0,5069,633.625
1764842381.3415275,0,0,-1037,-129.625
1764842381.3455226,0,0,-1838,-229.750
1764842381.349522,0,0,738,92.250
1764842381.3535182,1,1,4005,500.625
1764842381.3575237,0,0,5229,653.625
1764842381.3615196,0,0,-878,-109.750
1764842381.3655238,0,0,-1775,-221.875
1764842381.3695285,0,0,479,59.875
1764842381.3735201,1,1,3821,477.625
1764842381.3775218,0,0,5317,664.625
1764842381.381521,0,0,-771,-96.375
1764842381.385522,0,0,-1807,-225.875
1764842381.3895216,0,0,426,53.250
1764842381.3935184,1,1,3770,471.250
1764842381.3975215,0,0,5424,678.000
1764842381.4015164,0,0,-610,-76.250
1764842381.4055223,0,0,-2085,-260.625
1764842381.409525,0,0,689,86.125
1764842381.4135225,1,1,3912,489.000
1764842381.4175222,0,0,5540,692.500
1764842381.4215178,0,0,-435,-54.375
1764842381.4255211,0,0,-2050,-256.250
1764842381.4295237,0,0,409,51.125
1764842381.4388645,0,0,-194,-24.250
1764842381.441543,0,0,-194,-24.250
1764842381.4455304,0,0,-2126,-265.750
1764842381.4495234,0,0,590,73.750
1764842381.4535081,1,1,3803,475.375
1764842381.4575198,0,0,5610,701.250
1764842381.461522,0,0,-39,-4.875
1764842381.4655225,0,0,-1640,-205.000
1764842381.4695141,0,0,-207,-25.875
1764842381.473508,1,1,3232,404.000
1764842381.4775257,0,0,5483,685.375
1764842381.4815183,0,0,167,20.875
1764842381.4855182,0,0,-1413,-176.625
1764842381.489527,0,0,-631,-78.875
1764842381.493523,1,1,2891,361.375
1764842381.4975271,0,0,5427,678.375
1764842381.5015152,0,0,530,66.250
1764842381.5055165,0,0,-2118,-264.750
1764842381.50952,0,0,-155,-19.375
1764842381.5135205,1,1,5581,697.625
1764842381.5175202,0,0,771,96.375
1764842381.5215178,0,0,-1633,-204.125
1764842381.525518,0,0,-679,-84.875
1764842381.5295217,0,0,2836,354.500
1764842381.5335188,1,1,5451,681.375
1764842381.537518,0,0,1096,137.000
1764842381.5415235,0,0,-1420,-177.500
1764842381.5455034,0,0,-1067,-133.375
1764842381.5495157,0,0,2465,308.125
1764842381.5535166,1,1,5322,665.250
1764842381.5575216,0,0,1392,174.000
1764842381.5615163,0,0,-1601,-200.125
1764842381.5655143,0,0,-1006,-125.750
1764842381.569521,0,0,2533,316.625
1764842381.5735154,1,1,5365,670.625
1764842381.5775216,0,0,1750,218.750
1764842381.581527,0,0,-2220,-277.500
1764842381.5855317,0,0,-681,-85.125
1764842381.5895119,0,0,2827,353.375
1764842381.5935035,1,1,5470,683.750
1764842381.5975165,0,0,2006,250.750
1764842381.6015198,0,0,-1807,-225.875
1764842381.6055212,0,0,-1035,-129.375
1764842381.6095097,0,0,2494,311.750
1764842381.6135037,1,1,5316,664.500
1764842381.6175163,0,0,2266,283.250
1764842381.6215189,0,0,-1599,-199.875
1764842381.6255186,0,0,-1305,-163.125
1764842381.629521,0,0,2196,274.500
1764842381.633519,1,1,5167,645.875
1764842381.637597,0,0,2557,319.625
1764842381.641549,0,0,-1824,-228.000
1764842381.6455278,0,0,-1216,-152.000
1764842381.6495175,0,0,2292,286.500
1764842381.6535048,1,1,5186,648.250
1764842381.6575177,0,0,2900,362.500
1764842381.6615207,0,0,-1919,-239.875
1764842381.6655216,0,0,-1259,-157.375
1764842381.6695094,0,0,2230,278.750
1764842381.6735027,1,1,5120,640.000
1764842381.6775184,0,0,3139,392.375
1764842381.6815145,0,0,-2035,-254.375
1764842381.685518,0,0,-1255,-156.875
1764842381.689524,0,0,2232,279.000
1764842381.6935198,1,1,5090,636.250
1764842381.69752,0,0,3395,424.375
1764842381.701513,0,0,-1471,-183.875
1764842381.705516,0,0,-1635,-204.375
1764842381.7095182,0,0,1725,215.625
1764842381.7135167,1,1,4812,601.500
1764842381.717515,0,0,3632,454.000
1764842381.7215118,0,0,-1940,-242.500
1764842381.7255142,0,0,-1440,-180.000
1764842381.729521,0,0,1997,249.625
1764842381.7335157,1,1,4914,614.250
1764842381.7375193,0,0,3889,486.125
1764842381.7415473,0,0,-1869,-233.625
1764842381.7455168,0,0,-1528,-191.000
1764842381.7495153,0,0,1872,234.000
1764842381.75352,1,1,4821,602.625
1764842381.7575219,0,0,3984,498.000
1764842381.7615008,0,0,-1242,-155.250
1764842381.7655015,0,0,-1670,-208.750
1764842381.7695184,0,0,627,78.375
1764842381.7735171,1,1,4111,513.875
1764842381.7775161,0,0,4183,522.875
1764842381.7815015,0,0,-1247,-155.875
1764842381.7854998,0,0,-1755,-219.375
1764842381.789506,0,0,1053,131.625
1764842381.7935066,1,1,4364,545.500
1764842381.7975147,0,0,4542,567.750
1764842381.801517,0,0,-1519,-189.875
1764842381.8055143,0,0,-1812,-226.500
1764842381.8095205,0,0,1401,175.125
1764842381.813517,1,1,4528,566.000
1764842381.8175192,0,0,4807,600.875
1764842381.8215158,0,0,-1488,-186.000
1764842381.825514,0,0,-1645,-205.625
1764842381.829514,0,0,1661,207.625
1764842381.8335128,1,1,4622,577.750
1764842381.837594,0,0,4967,620.875
1764842381.8415642,0,0,-1384,-173.000
1764842381.8455224,0,0,-1678,-209.750
1764842381.8495111,0,0,1595,199.375
1764842381.853503,1,1,4546,568.250
1764842381.8575137,0,0,5120,640.000
1764842381.8615189,0,0,-1190,-148.750
1764842381.8655198,0,0,-1509,-188.625
1764842381.8695066,0,0,1789,223.625
1764842381.8735015,1,1,4600,575.000
1764842381.8775158,0,0,5257,657.125
1764842381.8815172,0,0,-1007,-125.875
1764842381.8855166,0,0,-1446,-180.750
1764842381.8895168,0,0,1829,228.625
1764842381.893514,1,1,4566,570.750
1764842381.8975172,0,0,5602,700.250
1764842381.9015129,0,0,3915,489.375
1764842381.905515,0,0,7326,915.750
1764842381.909514,0,0,8585,1073.125
1764842381.9135134,1,1,7285,910.625
1764842381.917515,0,0,5616,702.000
1764842381.9214995,0,0,4415,551.875
1764842381.925501,0,0,9020,1127.500
1764842381.929517,0,0,10134,1266.750
1764842381.9335132,1,1,7880,985.000
1764842381.937512,0,0,5491,686.375
1764842381.9414961,0,0,4330,541.250
1764842381.9455173,0,0,9447,1180.875
1764842381.9495165,0,0,10655,1331.875
1764842381.9535155,1,1,8012,1001.500
1764842381.9575129,0,0,5280,660.000
1764842381.9615097,0,0,3950,493.750
1764842381.9655123,0,0,9102,1137.750
1764842381.969519,0,0,10462,1307.750
1764842381.9735126,1,1,7792,974.000
1764842381.9775555,0,0,5005,625.625
1764842381.981844,0,0,3480,435.000
1764842381.9855917,0,0,8439,1054.875
1764842381.989529,0,0,9947,1243.375
1764842381.993516,1,1,7415,926.875
1764842381.9975138,0,0,4714,589.250
1764842382.0015082,0,0,3149,393.625
1764842382.0055118,0,0,8333,1041.625
1764842382.0095148,0,0,10095,1261.875
1764842382.0135133,1,1,7443,930.375
1764842382.0175152,0,0,4534,566.750
1764842382.021511,0,0,2823,352.875
1764842382.0255125,0,0,7821,977.625
1764842382.029518,0,0,9691,1211.375
1764842382.0335152,1,1,7121,890.125
1764842382.0375924,0,0,4249,531.125
1764842382.0415194,0,0,2591,323.875
1764842382.0455425,0,0,7926,990.750
1764842382.049501,0,0,10032,1254.000
1764842382.053503,1,1,7263,907.875
1764842382.0575147,0,0,4091,511.375
1764842382.0615149,0,0,1983,247.875
1764842382.065514,0,0,6674,834.250
1764842382.0695047,0,0,9010,1126.250
1764842382.0735006,1,1,6687,835.875
1764842382.0775127,0,0,3812,476.500
1764842382.0815227,0,0,1867,233.375
1764842382.0855153,0,0,6832,854.000
1764842382.0895185,0,0,9381,1172.625
1764842382.093516,1,1,6865,858.125
1764842382.0975208,0,0,3688,461.000
1764842382.101515,0,0,1428,178.500
1764842382.1055129,0,0,6107,763.375
1764842382.109514,0,0,8918,1114.750
1764842382.1135101,1,1,6617,827.125
1764842382.117513,0,0,3501,437.625
1764842382.1214993,0,0,1218,152.250
1764842382.1255007,0,0,5704,713.000
1764842382.1295161,0,0,6490,811.250
1764842382.133513,1,1,3330,416.250
1764842382.1375148,0,0,923,115.375
1764842382.141514,0,0,5213,651.625
1764842382.1455493,0,0,8468,1058.500
1764842382.149514,0,0,6393,799.125
1764842382.1535118,1,1,3198,399.750
1764842382.1575136,0,0,651,81.375
1764842382.161511,0,0,4471,558.875
1764842382.1655133,0,0,7841,980.125
1764842382.1695132,0,0,6036,754.500
1764842382.173511,1,1,2989,373.625
1764842382.1775146,0,0,542,67.750
1764842382.1815107,0,0,4359,544.875
1764842382.1855142,0,0,7933,991.625
1764842382.1895137,0,0,6106,763.250
1764842382.1935158,1,1,2898,362.250
1764842382.1975164,0,0,317,39.625
1764842382.201499,0,0,4123,515.375
1764842382.2054977,0,0,8088,1011.000
1764842382.209514,0,0,6314,789.250
1764842382.213512,1,1,2901,362.625
1764842382.2175112,0,0,88,11.000
1764842382.2214947,0,0,3454,431.750
1764842382.225498,0,0,7618,952.250
1764842382.2295153,0,0,6104,763.000
1764842382.2335126,1,1,2777,347.125
1764842382.2375903,0,0,43,5.375
1764842382.2415245,0,0,3302,412.750
1764842382.245518,0,0,7659,957.375
1764842382.249526,0,0,6177,772.125
1764842382.2534995,1,1,2714,339.250
1764842382.2575107,0,0,-172,-21.500
1764842382.2615123,0,0,2459,307.375
1764842382.2655118,0,0,6920,865.000
1764842382.2695036,0,0,5796,724.500
1764842382.2734993,1,1,2545,318.125
1764842382.2775102,0,0,-175,-21.875
1764842382.2815127,0,0,2496,312.000
1764842382.2855124,0,0,7233,904.125
1764842382.2895072,0,0,6084,760.500
1764842382.293498,1,1,2586,323.250
1764842382.2975128,0,0,-358,-44.750
1764842382.3015091,0,0,1599,199.875
1764842382.305509,0,0,6382,797.750
1764842382.3095114,0,0,5637,704.625
1764842382.3135178,1,1,2413,301.625
1764842382.3175154,0,0,-411,-51.375
1764842382.3214946,0,0,1335,166.875
1764842382.3254945,0,0,6288,786.000
1764842382.329509,0,0,5667,708.375
1764842382.3335114,1,1,2391,298.875
1764842382.3375125,0,0,-492,-61.500
1764842382.3414981,0,0,811,101.375
1764842382.3454936,0,0,5855,731.875
1764842382.3495243,0,0,5494,686.750
1764842382.3535097,1,1,2317,289.625
1764842382.3575137,0,0,-491,-61.375
1764842382.3615086,0,0,650,81.250
1764842382.365506,0,0,5812,726.500
1764842382.3695116,0,0,5552,694.000
1764842382.3735096,1,1,2310,288.750
1764842382.377512,0,0,-547,-68.375
1764842382.381506,0,0,302,37.750
1764842382.3855033,0,0,5705,713.125
1764842382.389505,0,0,5668,708.500
1764842382.393504,1,1,2392,299.000
1764842382.397511,0,0,-527,-65.875
1764842382.401506,0,0,2,0.250
1764842382.4055073,0,0,5474,684.250
1764842382.40951,0,0,5634,704.250
1764842382.4135067,1,1,2379,297.375
1764842382.417511,0,0,-547,-68.375
1764842382.4215047,0,0,-313,-39.125
1764842382.4255066,0,0,5318,664.750
1764842382.4295065,0,0,5729,716.125
1764842382.4335053,1,1,2464,308.000
1764842382.4428456,0,0,-361,-45.125
1764842382.445537,0,0,5529,691.125
1764842382.4495249,0,0,6044,755.500
1764842382.4534955,1,1,2612,326.500
1764842382.4575093,0,0,-553,-69.125
1764842382.4615133,0,0,-1174,-146.750
1764842382.4655123,0,0,4171,521.375
1764842382.4695027,0,0,5185,648.125
1764842382.4734926,1,1,2310,288.750
1764842382.4775076,0,0,-561,-70.125
1764842382.4815044,0,0,-1409,-176.125
1764842382.4855106,0,0,3000,375.000
1764842382.4895146,0,0,4469,558.625
1764842382.4935076,1,1,2070,258.750
1764842382.497512,0,0,-500,-62.500
1764842382.5015068,0,0,-1302,-162.750
1764842382.5055087,0,0,-621,-77.625
1764842382.5095086,0,0,1307,163.375
1764842382.5135086,1,1,687,85.875
1764842382.5175085,0,0,-467,-58.375
1764842382.5215032,0,0,-1531,-191.375
1764842382.5255067,0,0,601,75.125
1764842382.5295124,0,0,3022,377.750
1764842382.5335095,1,1,1851,231.375
1764842382.5375018,0,0,-86,-10.750
1764842382.5414884,0,0,-1021,-127.625
1764842382.54549,0,0,-1665,-208.125
1764842382.5495083,0,0,170,21.250
1764842382.5536187,1,1,738,92.250
1764842382.5575585,0,0,257,32.125
1764842382.561546,0,0,-1073,-134.125
1764842382.5655491,0,0,-1675,-209.375
1764842382.5695555,0,0,-379,-47.375
1764842382.5735514,1,1,620,77.500
1764842382.5775568,0,0,597,74.625
1764842382.5815532,0,0,-1035,-129.375
1764842382.5855484,0,0,-1368,-171.000
1764842382.5895503,0,0,-1168,-146.000
1764842382.5935485,1,1,461,57.625
1764842382.5975535,0,0,1113,139.125
1764842382.6015441,0,0,-937,-117.125
1764842382.6055474,0,0,-835,-104.375
1764842382.609552,0,0,-1837,-229.625
1764842382.6135495,1,1,-29,-3.625
1764842382.617552,0,0,1525,190.625
1764842382.6215544,0,0,-732,-91.500
1764842382.6255517,0,0,-834,-104.250
1764842382.6295369,0,0,-1738,-217.250
1764842382.6335518,1,1,-99,-12.375
1764842382.637559,0,0,2001,250.125
1764842382.6416216,0,0,-389,-48.625
1764842382.6455646,0,0,-1119,-139.875
1764842382.6495478,0,0,-1342,-167.750
1764842382.6535287,1,1,1102,137.750
1764842382.6575081,0,0,2696,337.000
1764842382.6615107,0,0,-124,-15.500
1764842382.6655095,0,0,-853,-106.625
1764842382.6694987,0,0,-1709,-213.625
1764842382.673491,1,1,805,100.625
1764842382.677507,0,0,2869,358.625
1764842382.6815054,0,0,184,23.000
1764842382.6855047,0,0,-1119,-139.875
1764842382.6895053,0,0,-1275,-159.375
1764842382.6935015,1,1,1431,178.875
1764842382.6975086,0,0,3247,405.875
1764842382.701504,0,0,489,61.125
1764842382.705515,0,0,-817,-102.125
1764842382.7095015,0,0,-1686,-210.750
1764842382.713489,1,1,314,39.250
1764842382.717501,0,0,3027,378.375
1764842382.7215052,0,0,866,108.250
1764842382.725509,0,0,-1210,-151.250
1764842382.7294984,0,0,-1099,-137.375
1764842382.733487,1,1,1797,224.625
1764842382.7375014,0,0,3713,464.125
1764842382.741503,0,0,1154,144.250
1764842382.7455053,0,0,-856,-107.000
1764842382.749508,0,0,1100,137.500
1764842382.7535198,1,1,3542,442.750
1764842382.7575054,0,0,1558,194.750
1764842382.7615001,0,0,-898,-112.250
1764842382.7655065,0,0,-1713,-214.125
1764842382.7695093,0,0,790,98.750
1764842382.7735062,1,1,3500,437.500
1764842382.7775059,0,0,2058,257.250
1764842382.781505,0,0,-1026,-128.250
1764842382.7855067,0,0,-1716,-214.500
1764842382.7894955,0,0,975,121.875
1764842382.7934902,1,1,3660,457.500
1764842382.7974997,0,0,2525,315.625
1764842382.8014987,0,0,-1266,-158.250
1764842382.8055048,0,0,-1588,-198.500
1764842382.8095078,0,0,1483,185.375
1764842382.8135052,1,1,3927,490.875
1764842382.8175044,0,0,2930,366.250
1764842382.821501,0,0,-1653,-206.625
1764842382.8255024,0,0,-1337,-167.125
1764842382.8295054,0,0,1809,226.125
1764842382.8335028,1,1,4065,508.125
1764842382.837506,0,0,3152,394.000
1764842382.8415754,0,0,-1290,-161.250
1764842382.8455215,0,0,-1691,-211.375
1764842382.849505,0,0,1314,164.250
1764842382.8535058,1,1,3833,479.125
1764842382.857506,0,0,3351,418.875
1764842382.861508,0,0,-1341,-167.625
1764842382.865507,0,0,-1684,-210.500
1764842382.869493,0,0,1361,170.125
1764842382.8734903,1,1,3866,483.250
1764842382.877508,0,0,3607,450.875
1764842382.8815036,0,0,-1178,-147.250
1764842382.8855011,0,0,-1742,-217.750
1764842382.8895044,0,0,924,115.500
1764842382.8935037,1,1,3646,455.750
1764842382.8975081,0,0,3825,478.125
1764842382.9014986,0,0,-1271,-158.875
1764842382.9055018,0,0,-1746,-218.250
1764842382.9094982,0,0,1219,152.375
1764842382.9135025,1,1,3813,476.625
1764842382.9175057,0,0,4065,508.125
1764842382.9214997,0,0,-1082,-135.250
1764842382.9255037,0,0,-1749,-218.625
1764842382.9295013,0,0,776,97.000
1764842382.9334867,1,1,3560,445.000
1764842382.9374971,0,0,4208,526.000
1764842382.9415045,0,0,-1579,-197.375
1764842382.9455047,0,0,-1625,-203.125
1764842382.9494884,0,0,1522,190.250
1764842382.9534843,1,1,3967,495.875
1764842382.957536,0,0,4422,552.750
1764842382.9615018,0,0,-1079,-134.875
1764842382.9655042,0,0,-1799,-224.875
1764842382.9695046,0,0,897,112.125
1764842382.9734988,1,1,3608,451.000
1764842382.97754,0,0,4523,565.375
1764842382.9818554,0,0,-1235,-154.375
1764842382.985596,0,0,-1531,-191.375
1764842382.9895136,0,0,1592,199.000
1764842382.9934988,1,1,3937,492.125
1764842382.9975023,0,0,4573,571.625
1764842383.001497,0,0,-812,-101.500
1764842383.0055015,0,0,-1528,-191.000
1764842383.0095036,0,0,-177,-22.125
1764842383.013498,1,1,2936,367.000
1764842383.0175009,0,0,4597,574.625
1764842383.0215008,0,0,-856,-107.000
1764842383.0255024,0,0,-1963,-245.375
1764842383.0295036,0,0,859,107.375
1764842383.0334992,1,1,3564,445.500
1764842383.037497,0,0,4801,600.125
1764842383.0415893,0,0,-720,-90.000
1764842383.0455194,0,0,-1918,-239.750
1764842383.0495074,0,0,994,124.250
1764842383.053501,1,1,3634,454.250
1764842383.0575027,0,0,4831,603.875
1764842383.0614998,0,0,-364,-45.500
1764842383.0655005,0,0,-1158,-144.750
1764842383.0695024,0,0,-1048,-131.000
1764842383.073499,1,1,2230,278.750
1764842383.0775049,0,0,4598,574.750
1764842383.0815063,0,0,-185,-23.125
1764842383.0854986,0,0,-1318,-164.750
1764842383.0895047,0,0,-756,-94.500
1764842383.0934904,1,1,2528,316.000
1764842383.0975,0,0,4826,603.250
1764842383.1014957,0,0,32,4.000
1764842383.1054983,0,0,-1392,-174.000
1764842383.109501,0,0,-639,-79.875
1764842383.1135015,1,1,2654,331.750
1764842383.1175017,0,0,4960,620.000
1764842383.1214924,0,0,454,56.750
1764842383.1254995,0,0,-2054,-256.750
1764842383.1295063,0,0,634,79.250
1764842383.1335025,1,1,3552,444.000
1764842383.1374989,0,0,5229,653.625
1764842383.1414838,0,0,640,80.000
1764842383.1454828,0,0,-2211,-276.375
1764842383.1494997,0,0,154,19.250
1764842383.1534996,1,1,3228,403.500
1764842383.1575394,0,0,5127,640.875
1764842383.1614974,0,0,824,103.000
1764842383.1654983,0,0,-1818,-227.250
1764842383.1695004,0,0,-416,-52.000
1764842383.1734996,1,1,2800,350.000
1764842383.1775036,0,0,4982,622.750
1764842383.1814995,0,0,1085,135.625
1764842383.185496,0,0,-1510,-188.750
1764842383.1894965,0,0,-839,-104.875
1764842383.1934962,1,1,2454,306.750
1764842383.1975036,0,0,4860,607.500
1764842383.2014947,0,0,1389,173.625
1764842383.2054942,0,0,-1695,-211.875
1764842383.2094996,0,0,-851,-106.375
1764842383.2135015,1,1,2451,306.375
1764842383.2175071,0,0,4863,607.875
1764842383.221486,0,0,1688,211.000
1764842383.2254848,0,0,-2271,-283.875
1764842383.2294967,0,0,-259,-32.375
1764842383.2334955,1,1,2939,367.375
1764842383.2374969,0,0,5019,627.375
1764842383.241567,0,0,2033,254.125
1764842383.2455144,0,0,-2128,-266.000
1764842383.2494957,0,0,109,13.625
1764842383.2534835,1,1,3204,400.500
1764842383.2575336,0,0,5061,632.625
1764842383.261502,0,0,2299,287.375
1764842383.265499,0,0,-2223,-277.875
1764842383.2694888,0,0,-323,-40.375
1764842383.273482,1,1,2847,355.875
1764842383.2774975,0,0,4869,608.625
1764842383.2815003,0,0,2363,295.375
1764842383.2855022,0,0,-1803,-225.375
1764842383.2894943,0,0,-1041,-130.125
1764842383.2934825,1,1,2238,279.750
1764842383.2974956,0,0,4604,575.500
1764842383.3014958,0,0,2637,329.625
1764842383.3054981,0,0,-1926,-240.750
1764842383.3094969,0,0,-1079,-134.875
1764842383.3134937,1,1,2203,275.375
1764842383.317496,0,0,4566,570.750
1764842383.3214946,0,0,2884,360.500
1764842383.3255098,0,0,-1656,-207.000
1764842383.3294997,0,0,-1345,-168.125
1764842383.3334851,1,1,1917,239.625
1764842383.3374941,0,0,4422,552.750
1764842383.3414986,0,0,3017,377.125
1764842383.345499,0,0,-1244,-155.500
1764842383.3494878,0,0,-1710,-213.750
1764842383.353484,1,1,1259,157.375
1764842383.357517,0,0,4122,515.250
1764842383.361494,0,0,3349,418.625
1764842383.3654928,0,0,-1639,-204.875
1764842383.369501,0,0,1560,195.000
1764842383.373496,1,1,4265,533.125
1764842383.3774986,0,0,3658,457.250
1764842383.3814907,0,0,-1606,-200.750
1764842383.3854964,0,0,-1556,-194.500
1764842383.3894873,0,0,1678,209.750
1764842383.3934827,1,1,4295,536.875
1764842383.397494,0,0,3807,475.875
1764842383.4014897,0,0,-1222,-152.750
1764842383.405494,0,0,-1734,-216.750
1764842383.4094982,0,0,954,119.250
1764842383.4134958,1,1,3923,490.375
1764842383.4174955,0,0,4028,503.500
1764842383.4214902,0,0,-1164,-145.500
1764842383.4254932,0,0,-1757,-219.625
1764842383.4294932,0,0,983,122.875
1764842383.433496,1,1,3936,492.000
1764842383.4374967,0,0,4251,531.375
1764842383.44688,0,0,-1763,-220.375
1764842383.4495225,0,0,920,115.000
1764842383.4535046,1,1,3901,487.625
1764842383.4575753,0,0,4488,561.000
1764842383.4615126,0,0,-1547,-193.375
1764842383.465497,0,0,-1691,-211.375
1764842383.4694996,0,0,1488,186.000
1764842383.4734952,1,1,4185,523.125
1764842383.477496,0,0,4649,581.125
1764842383.481497,0,0,-1095,-136.875
1764842383.4854963,0,0,-1790,-223.750
1764842383.489502,0,0,841,105.125
1764842383.4934957,1,1,3811,476.375
1764842383.497506,0,0,4746,593.250
1764842383.5015032,0,0,-960,-120.000
1764842383.5054996,0,0,-1766,-220.750
1764842383.5094953,0,0,599,74.875
1764842383.5134945,1,1,3652,456.500
1764842383.5175035,0,0,4852,606.500
1764842383.5214999,0,0,-896,-112.000
1764842383.5254977,0,0,-1817,-227.125
1764842383.529498,0,0,660,82.500
1764842383.5334938,1,1,3677,459.625
1764842383.5374942,0,0,4991,623.875
1764842383.5414863,0,0,-763,-95.375
1764842383.5454824,0,0,-1781,-222.625
1764842383.5495007,0,0,435,54.375
1764842383.5534945,1,1,3521,440.125
1764842383.5575018,0,0,5051,631.375
1764842383.5615013,0,0,-694,-86.750
1764842383.5654967,0,0,-1939,-242.375
1764842383.5695038,0,0,601,75.125
1764842383.5734947,1,1,3624,453.000
1764842383.577499,0,0,5153,644.125
1764842383.581501,0,0,-498,-62.250
1764842383.5854976,0,0,-1820,-227.500
1764842383.5894966,0,0,321,40.125
1764842383.5934951,1,1,3420,427.500
1764842383.5974996,0,0,5152,644.000
1764842383.6014953,0,0,-289,-36.125
1764842383.6054974,0,0,-1624,-203.000
1764842383.6095002,0,0,-82,-10.250
1764842383.6135015,1,1,3142,392.750
1764842383.6175015,0,0,5139,642.375
1764842383.6214986,0,0,-78,-9.750
1764842383.6254985,0,0,-1576,-197.000
1764842383.629493,0,0,-281,-35.125
1764842383.6334822,1,1,3006,375.750
1764842383.637484,0,0,5158,644.750
1764842383.6414936,0,0,132,16.500
1764842383.6455643,0,0,-1602,-200.250
1764842383.6495037,0,0,-306,-38.250
1764842383.6534822,1,1,2988,373.500
1764842383.657498,0,0,5198,649.750
1764842383.6614978,0,0,448,56.000
1764842383.6654928,0,0,-2141,-267.625
1764842383.6694841,0,0,3,0.375
1764842383.6734807,1,1,3218,402.250
1764842383.6774988,0,0,5284,660.500
1764842383.6814938,0,0,639,79.875
1764842383.6854944,0,0,-1712,-214.000
1764842383.6894977,0,0,-432,-54.000
1764842383.6934946,1,1,2887,360.875
1764842383.6975038,0,0,5187,648.375
1764842383.701497,0,0,947,118.375
1764842383.705493,0,0,-1507,-188.375
1764842383.7094917,0,0,-826,-103.250
1764842383.7134974,1,1,2558,319.750
1764842383.7175004,0,0,5082,635.250
1764842383.7214947,0,0,1268,158.500
1764842383.7254946,0,0,-1356,-169.500
1764842383.7294943,0,0,-1106,-138.250
1764842383.7334938,1,1,2303,287.875
1764842383.7374926,0,0,4997,624.625
1764842383.7414978,0,0,1602,200.250
1764842383.7454922,0,0,-1773,-221.625
1764842383.7494946,0,0,-887,-110.875
1764842383.7534914,1,1,2521,315.125
1764842383.757499,0,0,5084,635.500
1764842383.7614942,0,0,1910,238.750
1764842383.765495,0,0,-1739,-217.375
1764842383.769497,0,0,-1028,-128.500
1764842383.7734926,1,1,2379,297.375
1764842383.7774987,0,0,5010,626.250
1764842383.7814963,0,0,2216,277.000
1764842383.7854948,0,0,-1799,-224.875
1764842383.7894804,0,0,-1099,-137.375
1764842383.7934756,1,1,2309,288.625
1764842383.7974942,0,0,4961,620.125
1764842383.801493,0,0,2489,311.125
1764842383.8054938,0,0,-2213,-276.625
1764842383.8094983,0,0,-875,-109.375
1764842383.81349,1,1,2521,315.125
1764842383.817496,0,0,5019,627.375
1764842383.8214924,0,0,2761,345.125
1764842383.825493,0,0,-1839,-229.875
1764842383.8294952,0,0,-1227,-153.375
1764842383.8334897,1,1,2167,270.875
1764842383.8374949,0,0,4836,604.500
1764842383.8414927,0,0,3000,375.000
1764842383.8455737,0,0,-1949,-243.625
1764842383.8495052,0,0,-1232,-154.000
1764842383.8534758,1,1,2153,269.125
1764842383.8574922,0,0,4812,601.500
1764842383.861535,0,0,3096,387.000
1764842383.8654935,0,0,-1211,-151.375
1764842383.8694828,0,0,-1666,-208.250
1764842383.8734775,1,1,665,83.125
1764842383.8774927,0,0,4040,505.000
1764842383.8814921,0,0,3485,435.625
1764842383.885493,0,0,-2043,-255.375
1764842383.8894968,0,0,-1206,-150.750
1764842383.8934932,1,1,2189,273.625
1764842383.897495,0,0,4821,602.625
1764842383.9014912,0,0,3872,484.000
1764842383.9054904,0,0,-1960,-245.000
1764842383.9094925,0,0,-1349,-168.625
1764842383.913491,1,1,2020,252.500
1764842383.9174945,0,0,4701,587.625
1764842383.9214885,0,0,4059,507.375
1764842383.9254897,0,0,-1884,-235.500
1764842383.929493,0,0,-1223,-152.875
1764842383.9334972,1,1,2147,268.375
1764842383.9375029,0,0,4714,589.250
1764842383.9414935,0,0,4228,528.500
1764842383.945488,0,0,-1800,-225.000
1764842383.9494793,0,0,-1153,-144.125
1764842383.953474,1,1,2213,276.625
1764842383.9574938,0,0,4700,587.500
1764842383.9615073,0,0,4389,548.625
1764842383.965489,0,0,-1734,-216.750
1764842383.9694824,0,0,-1466,-183.250
1764842383.9734752,1,1,1837,229.625
1764842383.9775336,0,0,4467,558.375
1764842383.9818418,0,0,-1627,-203.375
1764842383.9855752,0,0,-1640,-205.000
1764842383.989503,0,0,1593,199.125
1764842383.993492,1,1,4306,538.250
1764842383.9974976,0,0,4601,575.125
1764842384.0014932,0,0,-1187,-148.375
1764842384.0054886,0,0,-1826,-228.250
1764842384.0094922,0,0,1050,131.250
1764842384.0134876,1,1,3986,498.250
1764842384.0174937,0,0,4703,587.875
1764842384.0214915,0,0,-1008,-126.000
1764842384.0254896,0,0,-1757,-219.625
1764842384.0294783,0,0,624,78.000
1764842384.0334728,0,1,3720,465.000
1764842384.0374794,0,0,4805,600.625
1764842384.0414755,0,0,-1200,-150.000
1764842384.0455544,0,0,-1909,-238.625
1764842384.0494883,0,0,1063,132.875
1764842384.0534737,0,0,3965,495.625
1764842384.05749,0,0,4980,622.500
1764842384.0615294,0,0,-860,-107.500
1764842384.0654926,0,0,-1776,-222.000
1764842384.0694778,0,0,537,67.125
1764842384.073473,0,0,3643,455.375
1764842384.07749,0,0,5029,628.625
1764842384.0814996,0,0,-811,-101.375
1764842384.0854936,0,0,-1861,-232.625
1764842384.089495,0,0,635,79.375
1764842384.0934904,0,0,3688,461.000
1764842384.0974953,0,0,5133,641.625
1764842384.101492,0,0,-603,-75.375
1764842384.1054897,0,0,-1735,-216.875
1764842384.1094806,0,0,270,33.750
1764842384.1134717,0,0,3444,430.500
1764842384.1174853,1,1,5165,645.625
1764842384.121488,0,0,-483,-60.375
1764842384.1254919,0,0,-1846,-230.750
1764842384.1294944,0,0,338,42.250
1764842384.1334946,0,0,3473,434.125
1764842384.1374948,1,1,5240,655.000
1764842384.14149,0,0,-243,-30.375
1764842384.1454916,0,0,-1901,-237.625
1764842384.1494918,0,0,241,30.125
1764842384.1534915,0,0,3393,424.125
1764842384.1574838,1,1,5258,657.250
1764842384.1615238,0,0,-39,-4.875
1764842384.1654935,0,0,-1769,-221.125
1764842384.1694937,0,0,-2,-0.250
1764842384.1734903,0,0,3221,402.625
1764842384.177492,1,0,5244,655.500
1764842384.1814904,0,0,210,26.250
1764842384.185486,0,0,-1933,-241.625
1764842384.1894896,0,0,5,0.625
1764842384.1934884,0,0,3220,402.500
1764842384.1974912,1,0,5267,658.375
1764842384.2014866,0,0,425,53.125
1764842384.205487,0,0,-1547,-193.375
1764842384.2094927,0,0,-492,-61.500
1764842384.2134855,0,0,2841,355.125
1764842384.217493,1,1,5171,646.375
1764842384.2214875,0,0,722,90.250
1764842384.2254844,0,0,-1613,-201.625
1764842384.2294836,0,0,-607,-75.875
1764842384.2334874,0,0,2752,344.000
1764842384.2374926,1,1,5157,644.625
1764842384.2414846,0,0,1004,125.500
1764842384.2455614,0,0,-1674,-209.250
1764842384.249495,0,0,-683,-85.375
1764842384.2534754,0,0,2694,336.750
1764842384.2574873,1,1,5148,643.500
1764842384.261528,0,0,1318,164.750
1764842384.2654862,0,0,-1767,-220.875
1764842384.2694757,0,0,-731,-91.375
1764842384.2734723,0,0,2655,331.875
1764842384.2774856,1,1,5131,641.375
1764842384.2814884,0,0,1603,200.375
1764842384.2854857,0,0,-1582,-197.750
1764842384.2894778,0,0,-1009,-126.125
1764842384.2934706,0,0,2395,299.375
1764842384.2974887,1,1,5022,627.750
1764842384.3014877,0,0,1889,236.125
1764842384.305487,0,0,-1486,-185.750
1764842384.309487,0,0,-1243,-155.375
1764842384.3134859,0,0,2160,270.000
1764842384.3174915,1,1,4924,615.500
1764842384.3214865,0,0,2229,278.625
1764842384.3254898,0,0,-1251,-156.375
1764842384.3294907,0,0,-1606,-200.750
1764842384.3334835,0,0,1689,211.125
1764842384.337493,1,1,4716,589.500
1764842384.3414888,0,0,2530,316.250
1764842384.3454971,0,0,-1846,-230.750
1764842384.3494792,0,0,-1189,-148.625
1764842384.353469,0,0,2237,279.625
1764842384.3574915,1,1,4954,619.250
1764842384.3614905,0,0,2863,357.875
1764842384.365524,0,0,-1853,-231.625
1764842384.3694806,0,0,-1266,-158.250
1764842384.3734677,0,0,2151,268.875
1764842384.3774881,1,1,4889,611.125
1764842384.381488,0,0,3105,388.125
1764842384.3854854,0,0,-1587,-198.375
1764842384.3894844,0,0,-1498,-187.250
1764842384.3934798,0,0,1867,233.375
1764842384.3974872,1,1,4729,591.125
1764842384.401483,0,0,3343,417.875
1764842384.4054842,0,0,-1696,-212.000
1764842384.4094894,0,0,-1466,-183.250
1764842384.4134872,0,0,1913,239.125
1764842384.4174852,1,1,4729,591.125
1764842384.4214828,0,0,3590,448.750
1764842384.4254851,0,0,-1391,-173.875
1764842384.4294746,0,0,-1714,-214.250
1764842384.4334662,0,0,1483,185.375
1764842384.4374878,1,1,4491,561.375
1764842384.441487,0,0,3827,478.375
1764842384.4508145,0,0,1339,167.375
1764842384.4535155,0,0,1339,167.375
1764842384.4574935,1,1,4391,548.875
1764842384.4614859,0,0,4065,508.125
1764842384.4654863,0,0,-1499,-187.375
1764842384.4694898,0,0,-1728,-216.000
1764842384.473484,0,0,1512,189.000
1764842384.4774814,1,1,4459,557.375
1764842384.4814827,0,0,4288,536.000
1764842384.4854846,0,0,-1412,-176.500
1764842384.4894872,0,0,-1789,-223.625
1764842384.493487,0,0,1376,172.000
1764842384.4974923,1,1,4359,544.875
1764842384.5014856,0,0,4482,560.250
1764842384.5054827,0,0,-1499,-187.375
1764842384.5094829,0,0,-1800,-225.000
1764842384.513484,0,0,1370,171.250
1764842384.5174918,1,1,4325,540.625
1764842384.521485,0,0,4656,582.000
1764842384.5254848,0,0,-1208,-151.000
1764842384.5294871,0,0,-1827,-228.375
1764842384.5334845,0,0,1003,125.375
1764842384.5374842,1,1,4094,511.750
1764842384.5414877,0,0,4783,597.875
1764842384.5454922,0,0,-1134,-141.750
1764842384.5494726,0,0,-1834,-229.250
1764842384.5534706,0,0,913,114.125
1764842384.55748,1,1,4034,504.250
1764842384.5614858,0,0,4844,605.500
1764842384.5654833,0,0,-935,-116.875
1764842384.5694737,0,0,-1350,-168.750
1764842384.5734644,0,0,-591,-73.875
1764842384.5774822,1,1,2973,371.625
1764842384.5814939,0,0,4856,607.000
1764842384.5854864,0,0,-1029,-128.625
1764842384.58948,0,0,-1990,-248.750
1764842384.5934796,0,0,824,103.000
1764842384.5974872,1,1,5304,663.000
1764842384.6014855,0,0,-823,-102.875
1764842384.6054811,0,0,-1966,-245.750
1764842384.6094854,0,0,621,77.625
1764842384.6134844,0,0,3836,479.500
1764842384.617488,1,1,5365,670.625
1764842384.6214867,0,0,-652,-81.500
1764842384.6254835,0,0,-2074,-259.250
1764842384.6294858,0,0,708,88.500
1764842384.633483,0,0,3872,484.000
1764842384.6374855,1,1,5448,681.000
1764842384.641486,0,0,-447,-55.875
1764842384.6454842,0,0,-1751,-218.875
1764842384.6495688,0,0,145,18.125
1764842384.6534994,0,0,3475,434.375
1764842384.657481,1,1,5411,676.375
1764842384.6614726,0,0,-247,-30.875
1764842384.6655033,0,0,-2141,-267.625
1764842384.6694798,0,0,487,60.875
1764842384.6734786,0,0,3692,461.500
1764842384.6774807,1,1,5519,689.875
1764842384.6814656,0,0,-43,-5.375
1764842384.6854672,0,0,-1791,-223.875
1764842384.6894884,0,0,-55,-6.875
1764842384.6934853,0,0,3303,412.875
1764842384.6974845,1,1,5445,680.625
1764842384.701482,0,0,205,25.625
1764842384.7054832,0,0,-1825,-228.125
1764842384.7094858,0,0,-163,-20.375
1764842384.7134852,0,0,3206,400.750
1764842384.7174864,1,1,5447,680.875
1764842384.7214804,0,0,435,54.375
1764842384.7254832,0,0,-1615,-201.875
1764842384.7294903,0,0,-518,-64.750
1764842384.7334838,0,0,2932,366.500
1764842384.737489,1,1,5388,673.500
1764842384.7414825,0,0,730,91.250
1764842384.7454815,0,0,-1827,-228.375
1764842384.7494802,0,0,-467,-58.375
1764842384.7534823,0,0,2962,370.250
1764842384.757488,1,1,5416,677.000
1764842384.7614808,0,0,1007,125.875
1764842384.7654812,0,0,-2173,-271.625
1764842384.7695265,0,0,-344,-43.000
1764842384.7734857,0,0,3059,382.375
1764842384.7774887,1,1,5450,681.250
1764842384.7814827,0,0,1257,157.125
1764842384.7854812,0,0,-1821,-227.625
1764842384.7894697,0,0,-697,-87.125
1764842384.7934666,0,0,2762,345.250
1764842384.797479,1,1,5335,666.875
1764842384.801507,0,0,1540,192.500
1764842384.8054883,0,0,-1671,-208.875
1764842384.8094778,0,0,-946,-118.250
1764842384.8134682,0,0,2532,316.500
1764842384.8174782,1,1,5236,654.500
1764842384.8214834,0,0,1863,232.875
1764842384.8254786,0,0,-1959,-244.875
1764842384.8294692,0,0,-859,-107.375
1764842384.833465,0,0,2612,326.500
1764842384.8374803,1,1,5252,656.500
1764842384.8414826,0,0,2167,270.875
1764842384.8454819,0,0,-2218,-277.250
1764842384.849557,0,0,-812,-101.500
1764842384.853496,0,0,2639,329.875
1764842384.8574767,1,1,5228,653.500
1764842384.8614693,0,0,2444,305.500
1764842384.865465,0,0,-2242,-280.250
1764842384.8695168,0,0,-812,-101.500
1764842384.8734787,0,0,2631,328.875
1764842384.8774784,1,1,5187,648.375
1764842384.8814657,0,0,2702,337.750
1764842384.885465,0,0,-2208,-276.000
1764842384.8894827,0,0,-941,-117.625
1764842384.893481,0,0,2496,312.000
1764842384.8974833,1,1,5087,635.875
1764842384.9014843,0,0,2940,367.500
1764842384.9054804,0,0,-1998,-249.750
1764842384.9094808,0,0,-1205,-150.625
1764842384.9134781,0,0,2227,278.375
1764842384.9174836,1,1,4933,616.625
1764842384.92148,0,0,3171,396.375
1764842384.92548,0,0,-2110,-263.750
1764842384.929487,0,0,-1167,-145.875
1764842384.9334805,0,0,2260,282.500
1764842384.9374847,1,1,4909,613.625
1764842384.9414775,0,0,3420,427.500
1764842384.94548,0,0,-2102,-262.750
1764842384.949482,0,0,-1120,-140.000
1764842384.9534836,0,0,2294,286.750
1764842384.9574833,1,1,4877,609.625
1764842384.9614642,0,0,3630,453.750
1764842384.965466,0,0,-2012,-251.500
1764842384.969516,0,0,-1327,-165.875
1764842384.9734812,0,0,2058,257.250
1764842384.977507,1,1,4724,590.500
1764842384.981827,0,0,3824,478.000
1764842384.9855645,0,0,-1947,-243.375
1764842384.989495,0,0,-840,-105.000
1764842384.993477,0,0,2559,319.875
1764842384.9974818,1,1,4913,614.125
1764842385.001476,0,0,4037,504.625
1764842385.0054717,0,0,-1568,-196.000
1764842385.0094798,0,0,-1649,-206.125
1764842385.0134745,0,0,1620,202.500
1764842385.0174787,1,1,4422,552.750
1764842385.0214777,0,0,4164,520.500
1764842385.0254748,0,0,-1448,-181.000
1764842385.0294802,0,0,-1728,-216.000
1764842385.0334775,0,0,1476,184.500
1764842385.0374737,1,1,4314,539.250
1764842385.041478,0,0,4344,543.000
1764842385.0454774,0,0,-1397,-174.625
1764842385.0495713,0,0,-1782,-222.750
1764842385.053493,0,0,1369,171.125
1764842385.05748,1,1,4237,529.625
1764842385.0614796,0,0,4508,563.500
1764842385.0654736,0,0,-1563,-195.375
1764842385.0694766,0,0,-1732,-216.500
1764842385.0735152,0,0,1473,184.125
1764842385.0774815,1,1,4264,533.000
1764842385.081485,0,0,4685,585.625
1764842385.0854764,0,0,-1288,-161.000
1764842385.089481,0,0,-1853,-231.625
1764842385.0934782,0,0,1181,147.625
1764842385.097479,1,1,4072,509.000
1764842385.101481,0,0,4794,599.250
1764842385.1054766,0,0,-1235,-154.375
1764842385.1094782,0,0,-1885,-235.625
1764842385.1134765,0,0,1107,138.375
1764842385.1174843,1,1,4008,501.000
1764842385.1214786,0,0,4910,613.750
1764842385.125478,0,0,-1197,-149.625
1764842385.1294758,0,0,-1884,-235.500
1764842385.1334612,0,0,1167,145.875
1764842385.1374764,1,1,4027,503.375
1764842385.1414807,0,0,5026,628.250
1764842385.1454785,0,0,-920,-115.000
1764842385.149477,0,0,-1855,-231.875
1764842385.153476,0,0,724,90.500
1764842385.157492,1,1,3742,467.750
1764842385.1614823,0,0,5060,632.500
1764842385.1654806,0,0,-729,-91.125
1764842385.1694725,0,0,-1782,-222.750
1764842385.1734965,0,0,437,54.625
1764842385.1774743,1,1,3542,442.750
1764842385.1814787,0,0,5106,638.250
1764842385.1854768,0,0,-656,-82.000
1764842385.1894717,0,0,-1917,-239.625
1764842385.1934597,0,0,556,69.500
1764842385.1974769,1,1,3608,451.000
1764842385.2014787,0,0,5201,650.125
1764842385.2054784,0,0,-459,-57.375
1764842385.209484,0,0,-2048,-256.000
1764842385.2134767,0,0,3584,448.000
1764842385.2174773,1,1,5249,656.125
1764842385.2214737,0,0,-225,-28.125
1764842385.2254763,0,0,-1858,-232.250
1764842385.229477,0,0,216,27.000
1764842385.2334762,0,0,3361,420.125
1764842385.2374766,1,1,5221,652.625
1764842385.2414763,0,0,-23,-2.875
1764842385.2454762,0,0,-1708,-213.500
1764842385.2495565,0,0,-69,-8.625
1764842385.253494,0,0,3149,393.625
1764842385.2574735,1,1,5196,649.500
1764842385.2614644,0,0,266,33.250
1764842385.2654583,0,0,-2158,-269.750
1764842385.2694776,0,0,145,18.125
1764842385.273513,0,0,3305,413.125
1764842385.277473,1,1,5261,657.625
1764842385.2814603,0,0,404,50.500
1764842385.2854562,0,0,-1174,-146.750
1764842385.2894716,0,0,-1048,-131.000
1764842385.2934594,0,0,2346,293.250
1764842385.2974768,1,1,4986,623.250
1764842385.3014796,0,0,647,80.875
1764842385.305474,0,0,-994,-124.250
1764842385.3094769,0,0,-1276,-159.500
1764842385.3134768,0,0,2135,266.875
1764842385.317481,1,1,4964,620.500
1764842385.3214748,0,0,1208,151.000
1764842385.3254738,0,0,-2275,-284.375
1764842385.3294785,0,0,-255,-31.875
1764842385.333476,0,0,3055,381.875
1764842385.337484,1,1,5311,663.875
1764842385.3414764,0,0,1495,186.875
1764842385.3454726,0,0,-2257,-282.125
1764842385.3494756,0,0,-427,-53.375
1764842385.353475,0,0,2916,364.500
1764842385.3574805,1,1,5238,654.750
1764842385.3614805,0,0,1763,220.375
1764842385.3654828,0,0,-2252,-281.500
1764842385.3694701,0,0,-549,-68.625
1764842385.3734605,0,0,2811,351.375
1764842385.377508,1,1,5171,646.375
1764842385.3814795,0,0,2019,252.375
1764842385.385474,0,0,-2157,-269.625
1764842385.3894627,0,0,-764,-95.500
1764842385.393456,0,0,2613,326.625
1764842385.3974748,1,1,5059,632.375
1764842385.4014745,0,0,2277,284.625
1764842385.405475,0,0,-1879,-234.875
1764842385.4094784,0,0,-1033,-129.125
1764842385.4134722,0,0,2359,294.875
1764842385.417478,1,1,4930,616.250
1764842385.4214766,0,0,2549,318.625
1764842385.425473,0,0,-1972,-246.500
1764842385.4294696,0,0,-1079,-134.875
1764842385.4334707,0,0,2311,288.875
1764842385.437476,1,1,4882,610.250
1764842385.4414735,0,0,2794,349.250
1764842385.4454722,0,0,-2078,-259.750
1764842385.4547958,0,0,2303,287.875
1764842385.4575088,1,1,4844,605.500
1764842385.4614828,0,0,3049,381.125
1764842385.4654763,0,0,-1537,-192.125
1764842385.4694633,0,0,-1506,-188.250
1764842385.473455,0,0,1822,227.750
1764842385.4774811,1,1,4606,575.750
1764842385.4814782,0,0,3285,410.625
1764842385.4854724,0,0,-1725,-215.625
1764842385.4894686,0,0,-1425,-178.125
1764842385.4934573,0,0,1922,240.250
1764842385.497473,1,1,4627,578.375
1764842385.5014727,0,0,3533,441.625
1764842385.5054746,0,0,-1590,-198.750
1764842385.5094736,0,0,-1550,-193.750
1764842385.5134742,0,0,1761,220.125
1764842385.5174768,1,1,4524,565.500
1764842385.5214725,0,0,3744,468.000
1764842385.5254738,0,0,-1421,-177.625
1764842385.5294805,0,0,-1679,-209.875
1764842385.5334756,0,0,1559,194.875
1764842385.5374677,1,1,4397,549.625
1764842385.5414536,0,0,3974,496.750
1764842385.545453,0,0,-1612,-201.500
1764842385.5494773,0,0,-1633,-204.125
1764842385.5534742,0,0,1640,205.000
1764842385.557478,1,1,4415,551.875
1764842385.5614727,0,0,4186,523.250
1764842385.565481,0,0,-1807,-225.875
1764842385.5694711,0,0,-1505,-188.125
1764842385.5734594,0,0,1804,225.500
1764842385.5774736,1,1,4456,557.000
1764842385.5814793,0,0,4384,548.000
1764842385.5854733,0,0,-1639,-204.875
1764842385.5894644,0,0,-1688,-211.000
1764842385.593458,0,0,1538,192.250
1764842385.5974739,1,1,4293,536.625
1764842385.6014717,0,0,4534,566.750
1764842385.6054707,0,0,-1543,-192.875
1764842385.6094773,0,0,-1750,-218.750
1764842385.6134717,0,0,1420,177.500
1764842385.617476,1,1,4196,524.500
1764842385.6214745,0,0,4657,582.125
1764842385.625469,0,0,-1402,-175.250
1764842385.6294692,0,0,-1826,-228.250
1764842385.6334717,0,0,1272,159.000
1764842385.6374784,1,1,4091,511.375
1764842385.6414728,0,0,4780,597.500
1764842385.6454673,0,0,-1057,-132.125
1764842385.6494741,0,0,-1829,-228.625
1764842385.6535447,0,0,838,104.750
1764842385.6574857,1,1,3808,476.000
1764842385.66146,0,0,4856,607.000
1764842385.6654563,0,0,-1142,-142.750
1764842385.6694741,0,0,-1923,-240.375
1764842385.6734684,0,0,1021,127.625
1764842385.6775064,1,1,3901,487.625
1764842385.6814587,0,0,4990,623.750
1764842385.685458,0,0,-853,-106.625
1764842385.6894577,0,0,-1816,-227.000
1764842385.693454,0,0,591,73.875
1764842385.6974695,1,1,3630,453.750
1764842385.7014742,0,0,5025,628.125
1764842385.705472,0,0,-737,-92.125
1764842385.709471,0,0,-1807,-225.875
1764842385.7134674,0,0,477,59.625
1764842385.7174733,1,1,3554,444.250
1764842385.7214727,0,0,5103,637.875
1764842385.7254703,0,0,-616,-77.000
1764842385.7294786,0,0,-1887,-235.875
1764842385.7334697,0,0,480,60.000
1764842385.7374737,1,1,3533,441.625
1764842385.7414699,0,0,5168,646.000
1764842385.74547,0,0,-422,-52.750
1764842385.7494733,0,0,-2077,-259.625
1764842385.7534688,0,0,585,73.125
1764842385.7574725,1,1,3599,449.875
1764842385.7614675,0,0,5233,654.125
1764842385.765471,0,0,-216,-27.000
1764842385.7694762,0,0,-1875,-234.375
1764842385.7734764,0,0,223,27.875
1764842385.7775095,1,1,3345,418.125
1764842385.7814553,0,0,5196,649.500
1764842385.7854543,0,0,17,2.125
1764842385.7894728,0,0,-2084,-260.500
1764842385.7934687,0,0,231,28.875
1764842385.7974665,1,1,3345,418.125
1764842385.8014657,0,0,5220,652.500
1764842385.8054686,0,0,258,32.250
1764842385.8094766,0,0,-2135,-266.875
1764842385.8134713,0,0,148,18.500
1764842385.8174708,1,1,3275,409.375
1764842385.8214705,0,0,5211,651.375
1764842385.825467,0,0,520,65.000
1764842385.8294697,0,0,-2203,-275.375
1764842385.833468,0,0,3288,411.000
1764842385.8374734,1,1,5211,651.375
1764842385.8414674,0,0,748,93.500
1764842385.8454657,0,0,-1969,-246.125
1764842385.8494747,0,0,-240,-30.000
1764842385.8535476,0,0,2973,371.625
1764842385.8574855,1,1,5102,637.750
1764842385.8614552,0,0,1029,128.625
1764842385.865449,0,0,-2191,-273.875
1764842385.8694687,0,0,-231,-28.875
1764842385.8734705,0,0,2976,372.000
1764842385.8775022,1,1,5088,636.000
1764842385.881456,0,0,1294,161.750
1764842385.885452,0,0,-1896,-237.000
1764842385.8894718,0,0,-585,-73.125
1764842385.89347,0,0,2692,336.500
1764842385.8974755,1,1,4971,621.375
1764842385.9014711,0,0,1565,195.625
1764842385.9054651,0,0,-2007,-250.875
1764842385.9094672,0,0,-613,-76.625
1764842385.9134698,0,0,2674,334.250
1764842385.9174733,1,1,4952,619.000
1764842385.9214673,0,0,1859,232.375
1764842385.9254694,0,0,-2260,-282.500
1764842385.929472,0,0,-517,-64.625
1764842385.933466,0,0,2749,343.625
1764842385.9374716,1,1,4948,618.500
1764842385.941469,0,0,2077,259.625
1764842385.9454672,0,0,-1869,-233.625
1764842385.9494653,0,0,-922,-115.250
1764842385.9534636,0,0,2400,300.000
1764842385.9574714,1,1,4792,599.000
1764842385.9614677,0,0,2362,295.250
1764842385.9654684,0,0,-2050,-256.250
1764842385.969473,0,0,-916,-114.500
1764842385.973466,0,0,2398,299.750
1764842385.9775014,1,1,4760,595.000
1764842385.9818573,0,0,2624,328.000
1764842385.9855702,0,0,-2131,-266.375
1764842385.9894836,0,0,-96,-12.000
1764842385.9934664,0,0,3108,388.500
1764842385.9974728,1,1,5006,625.750
1764842386.001468,0,0,2859,357.375
1764842386.0054674,0,0,-1690,-211.250
1764842386.0094695,0,0,-1294,-161.750
1764842386.013462,0,0,2007,250.875
1764842386.0174682,1,1,4508,563.500
1764842386.021469,0,0,3087,385.875
1764842386.0254672,0,0,-2130,-266.250
1764842386.0294657,0,0,-1084,-135.500
1764842386.033466,0,0,2219,277.375
1764842386.0374591,1,1,4566,570.750
1764842386.0414786,0,0,3316,414.500
1764842386.045574,0,0,-2117,-264.625
1764842386.049505,0,0,-748,-93.500
1764842386.0535443,0,0,2552,319.000
1764842386.057478,1,1,4681,585.125
1764842386.061454,0,0,3522,440.250
1764842386.0654497,0,0,-2071,-258.875
1764842386.0694742,0,0,-1125,-140.625
1764842386.073469,0,0,2179,272.375
1764842386.07746,1,1,4472,559.000
1764842386.0814567,0,0,3708,463.500
1764842386.0854511,0,0,-1933,-241.625
1764842386.0894735,0,0,-1356,-169.500
1764842386.0934656,0,0,1912,239.000
1764842386.0974665,1,1,4317,539.625
1764842386.101467,0,0,3771,471.375
1764842386.105463,0,0,-1167,-145.875
1764842386.1094558,0,0,-1689,-211.125
1764842386.1134605,0,0,593,74.125
1764842386.117473,1,1,3639,454.875
1764842386.1214528,0,0,3971,496.375
1764842386.1254494,0,0,-1134,-141.750
1764842386.1294718,0,0,-1735,-216.875
1764842386.1334658,0,0,874,109.250
1764842386.1374645,1,1,3814,476.750
1764842386.1414492,0,0,4309,538.625
1764842386.1454484,0,0,-1622,-202.750
1764842386.1494546,0,0,-1666,-208.250
1764842386.1534495,0,0,1520,190.000
1764842386.1574643,1,1,4139,517.375
1764842386.1614947,0,0,4516,564.500
1764842386.1654692,0,0,-1536,-192.000
1764842386.1694555,0,0,-1316,-164.500
1764842386.173454,0,0,1979,247.375
1764842386.177463,1,1,4353,544.125
1764842386.181504,0,0,4675,584.375
1764842386.1854625,0,0,-1339,-167.375
1764842386.189452,0,0,-1822,-227.750
1764842386.1934469,0,0,1231,153.875
1764842386.1974528,1,1,3921,490.125
1764842386.2014656,0,0,4708,588.500
1764842386.2054634,0,0,-1180,-147.500
1764842386.2094646,0,0,-1877,-234.625
1764842386.213462,0,0,1086,135.750
1764842386.2174697,1,1,3821,477.625
1764842386.2214675,0,0,4792,599.000
1764842386.225464,0,0,-1000,-125.000
1764842386.2294636,0,0,-1897,-237.125
1764842386.2334588,0,0,902,112.750
1764842386.2374687,1,1,3695,461.875
1764842386.2414665,0,0,4849,606.125
1764842386.2454631,0,0,-737,-92.125
1764842386.2494702,0,0,-1768,-221.000
1764842386.2535415,0,0,462,57.750
1764842386.2574766,1,1,3423,427.875
1764842386.2614532,0,0,4883,610.375
1764842386.2654483,0,0,-691,-86.375
1764842386.2694702,0,0,-1872,-234.000
1764842386.2734613,0,0,607,75.875
1764842386.2774591,1,1,3513,439.125
1764842386.2814882,0,0,4982,622.750
1764842386.2854476,0,0,-481,-60.125
1764842386.2894666,0,0,-1795,-224.375
1764842386.2934575,0,0,324,40.500
1764842386.297456,1,1,3320,415.000
1764842386.301462,0,0,4986,623.250
1764842386.3054616,0,0,-329,-41.125
1764842386.3094616,0,0,-1850,-231.250
1764842386.313459,0,0,322,40.250
1764842386.317465,1,1,3317,414.625
1764842386.32146,0,0,5028,628.500
1764842386.3254614,0,0,-119,-14.875
1764842386.3294706,0,0,-1746,-218.250
1764842386.3334656,0,0,104,13.000
1764842386.3374643,1,1,3164,395.500
1764842386.3414598,0,0,5025,628.125
1764842386.3454597,0,0,122,15.250
1764842386.3494632,0,0,-1564,-195.500
1764842386.3534596,0,0,-352,-44.000
1764842386.3574605,1,1,2842,355.250
1764842386.3614593,0,0,4958,619.750
1764842386.3654597,0,0,397,49.625
1764842386.3694692,0,0,-1833,-229.125
1764842386.3734612,0,0,-130,-16.250
1764842386.3774667,1,1,3018,377.250
1764842386.3814995,0,0,5034,629.250
1764842386.3854656,0,0,683,85.375
1764842386.38946,0,0,-1917,-239.625
1764842386.3934476,0,0,-225,-28.125
1764842386.3974576,1,1,2942,367.750
1764842386.4014585,0,0,5009,626.125
1764842386.405458,0,0,983,122.875
1764842386.4094543,0,0,-2169,-271.125
1764842386.4134438,0,0,-225,-28.125
1764842386.417463,1,1,2939,367.375
1764842386.421459,0,0,4996,624.500
1764842386.4254575,0,0,1255,156.875
1764842386.429461,0,0,-2254,-281.750
1764842386.43346,0,0,-68,-8.500
1764842386.437464,1,1,3058,382.250
1764842386.4414592,0,0,5015,626.875
1764842386.445459,0,0,1498,187.250
1764842386.449465,0,0,-381,-47.625
1764842386.4588575,1,1,4901,612.625
1764842386.461489,0,0,1812,226.500
1764842386.4654636,0,0,-2206,-275.750
1764842386.4694476,0,0,28,3.500
1764842386.4734433,0,0,3127,390.875
1764842386.4774597,1,1,4974,621.750
1764842386.4815016,0,0,1977,247.125
1764842386.4854643,0,0,-1767,-220.875
1764842386.4894552,0,0,-930,-116.250
1764842386.493443,0,0,2332,291.500
1764842386.497462,1,1,4643,580.375
1764842386.501462,0,0,2262,282.750
1764842386.505461,0,0,-1748,-218.500
1764842386.5094454,0,0,-1070,-133.750
1764842386.5134408,0,0,2203,275.375
1764842386.5174632,1,1,4573,571.625
1764842386.5214627,0,0,2520,315.000
1764842386.5254574,0,0,-1936,-242.000
1764842386.5294576,0,0,-1035,-129.375
1764842386.533461,0,0,2235,279.375
1764842386.5374591,1,1,4561,570.125
1764842386.541448,0,0,2771,346.375
1764842386.5454426,0,0,-2174,-271.750
1764842386.5494606,0,0,-936,-117.000
1764842386.5534544,0,0,2337,292.125
1764842386.5574546,1,1,4576,572.000
1764842386.5614433,0,0,3006,375.750
1764842386.5654414,0,0,-2083,-260.375
1764842386.5694625,0,0,-1068,-133.500
1764842386.5734582,0,0,2216,277.000
1764842386.5774627,1,1,4497,562.125
1764842386.5814593,0,0,3236,404.500
1764842386.5854654,0,0,-1808,-226.000
1764842386.5894623,0,0,-1306,-163.250
1764842386.5934591,0,0,1957,244.625
1764842386.597463,1,1,4348,543.500
1764842386.601458,0,0,3450,431.250
1764842386.605456,0,0,-1615,-201.875
1764842386.609468,0,0,-1482,-185.250
1764842386.6134589,0,0,1754,219.250
1764842386.6174614,1,1,4239,529.875
1764842386.6214576,0,0,3657,457.125
1764842386.625458,0,0,-1678,-209.750
1764842386.6294603,0,0,-1489,-186.125
1764842386.6334572,0,0,1742,217.750
1764842386.6374605,1,1,4210,526.250
1764842386.6414554,0,0,3873,484.125
1764842386.6454544,0,0,-1700,-212.500
1764842386.6494648,0,0,-1540,-192.500
1764842386.6534588,0,0,1667,208.375
1764842386.6575384,1,1,4139,517.375
1764842386.6614778,0,0,4044,505.500
1764842386.6654572,0,0,-1313,-164.125
1764842386.669446,0,0,-1764,-220.500
1764842386.6734424,0,0,1272,159.000
1764842386.6774583,1,1,3916,489.500
1764842386.6814566,0,0,4198,524.750
1764842386.6854937,0,0,-1687,-210.875
1764842386.6894507,0,0,-1569,-196.125
1764842386.6934443,0,0,1624,203.000
1764842386.6974616,1,1,4082,510.250
1764842386.7014582,0,0,4361,545.125
1764842386.7054536,0,0,-1204,-150.500
1764842386.7094445,0,0,-1804,-225.500
1764842386.7134418,0,0,1107,138.375
1764842386.7174547,1,1,3798,474.750
1764842386.7214592,0,0,4471,558.875
1764842386.7254543,0,0,-1372,-171.500
1764842386.729462,0,0,-1785,-223.125
1764842386.7334566,0,0,1284,160.500
1764842386.7374601,1,1,3873,484.125
1764842386.7414596,0,0,4603,575.375
1764842386.745453,0,0,-1166,-145.750
1764842386.7494545,0,0,-1849,-231.125
1764842386.753453,0,0,1122,140.250
1764842386.7574592,1,1,3779,472.375
1764842386.7614558,0,0,4694,586.750
1764842386.7654574,0,0,-896,-112.000
1764842386.7694604,0,0,-1795,-224.375
1764842386.7734518,0,0,664,83.000
1764842386.777459,1,1,3495,436.875
1764842386.7814586,0,0,4737,592.125
1764842386.7854903,0,0,-813,-101.625
1764842386.7894404,0,0,-1842,-230.250
1764842386.793437,0,0,677,84.625
1764842386.7974553,1,1,3491,436.375
1764842386.8014607,0,0,4819,602.375
1764842386.8054674,0,0,-591,-73.875
1764842386.809453,0,0,-1768,-221.000
1764842386.8134358,0,0,387,48.375
1764842386.8174503,1,1,3318,414.750
1764842386.8214543,0,0,4861,607.625
1764842386.8254542,0,0,-546,-68.250
1764842386.8294442,0,0,-1914,-239.250
1764842386.8334367,0,0,527,65.875
1764842386.8374546,1,1,3399,424.875
1764842386.8414552,0,0,4934,616.750
1764842386.8454564,0,0,-314,-39.250
1764842386.8494637,0,0,-1801,-225.125
1764842386.8534539,0,0,241,30.125
1764842386.857536,1,1,3208,401.000
1764842386.8614714,0,0,4925,615.625
1764842386.8654583,0,0,-103,-12.875
1764842386.8694456,0,0,-2093,-261.625
1764842386.8734396,0,0,423,52.875
1764842386.8774517,1,1,3329,416.125
1764842386.881452,0,0,4981,622.625
1764842386.8854907,0,0,125,15.625
1764842386.8894534,0,0,-1757,-219.625
1764842386.8934426,0,0,-53,-6.625
1764842386.8974555,1,1,3003,375.375
1764842386.901456,0,0,4902,612.750
1764842386.9054513,0,0,402,50.250
1764842386.9094553,0,0,-2140,-267.500
1764842386.913453,0,0,433,54.125
1764842386.9174504,1,1,3337,417.125
1764842386.9214518,0,0,5002,625.250
1764842386.925459,0,0,613,76.625
1764842386.9294515,0,0,-2178,-272.250
1764842386.93344,0,0,71,8.875
1764842386.9374514,1,1,3083,385.375
1764842386.9414494,0,0,4920,615.000
1764842386.94545,0,0,646,80.750
1764842386.9494433,0,0,-983,-122.875
1764842386.9534385,0,0,-1397,-174.625
1764842386.9574556,1,1,1846,230.750
1764842386.9614549,0,0,4527,565.875
1764842386.9654517,0,0,1255,156.875
1764842386.9694557,0,0,-2249,-281.125
1764842386.9734557,0,0,-40,-5.000
1764842386.9774914,1,1,3051,381.375
1764842386.9818099,0,0,4966,620.750
1764842386.9855845,0,0,1562,195.250
1764842386.9894674,0,0,-1907,-238.375
1764842386.9934504,0,0,800,100.000
1764842386.9974558,1,1,3665,458.125
1764842387.0014524,0,0,5138,642.250
1764842387.0054474,0,0,1713,214.125
1764842387.0094512,0,0,-2034,-254.250
1764842387.0134466,0,0,-591,-73.875
1764842387.0174532,1,1,2605,325.625
1764842387.0214555,0,0,4720,590.000
1764842387.02545,0,0,1977,247.125
1764842387.029453,0,0,-2128,-266.000
1764842387.03345,0,0,-682,-85.250
1764842387.0374486,1,1,2527,315.875
1764842387.0414493,0,0,4663,582.875
1764842387.0454502,0,0,2225,278.125
1764842387.04945,0,0,-2256,-282.000
1764842387.053447,0,0,-630,-78.750
1764842387.0575318,1,1,2569,321.125
1764842387.061471,0,0,4644,580.500
1764842387.0654535,0,0,-2256,-282.000
1764842387.0694532,0,0,-516,-64.500
1764842387.073449,0,0,2671,333.875
1764842387.0774565,1,1,4650,581.250
1764842387.0814543,0,0,2694,336.750
1764842387.0854974,0,0,-2066,-258.250
1764842387.0894485,0,0,-962,-120.250
1764842387.093438,0,0,2268,283.500
1764842387.0974543,1,1,4448,556.000
1764842387.1014533,0,0,2911,363.875
1764842387.1054537,0,0,-1952,-244.000
1764842387.1094563,0,0,-1114,-139.250
1764842387.1134512,0,0,2125,265.625
1764842387.1174502,1,1,4364,545.500
1764842387.121451,0,0,3128,391.000
1764842387.125453,0,0,-1978,-247.250
1764842387.1294599,0,0,-1144,-143.000
1764842387.1334565,0,0,2104,263.000
1764842387.1374536,1,1,4333,541.625
1764842387.1414378,0,0,3339,417.375
1764842387.145437,0,0,-1789,-223.625
1764842387.1494555,0,0,-1311,-163.875
1764842387.1534512,0,0,1921,240.125
1764842387.1574454,1,1,4223,527.875
1764842387.1614344,0,0,3534,441.750
1764842387.1654356,0,0,-1590,-198.750
1764842387.1694493,0,0,-1489,-186.125
1764842387.173439,0,0,1715,214.375
1764842387.1774504,1,1,4112,514.000
1764842387.1814506,0,0,3720,465.000
1764842387.1854482,0,0,-1481,-185.125
1764842387.189492,0,0,-1579,-197.375
1764842387.1934514,0,0,1593,199.125
1764842387.197456,1,1,4035,504.375
1764842387.2014496,0,0,3930,491.250
1764842387.2054489,0,0,-1823,-227.875
1764842387.2094595,0,0,-1433,-179.125
1764842387.2134502,0,0,1788,223.500
1764842387.2174473,1,1,4109,513.625
1764842387.2214496,0,0,4101,512.625
1764842387.2254488,0,0,-1554,-194.250
1764842387.2294478,0,0,-1617,-202.125
1764842387.2334497,0,0,1541,192.625
1764842387.2374535,1,1,3963,495.375
1764842387.2414474,0,0,4242,530.250
1764842387.2454472,0,0,-1513,-189.125
1764842387.2494545,0,0,-1671,-208.875
1764842387.253452,0,0,1457,182.125
1764842387.257532,1,1,3905,488.125
1764842387.2614703,0,0,4371,546.375
1764842387.2654505,0,0,-1526,-190.750
1764842387.2694387,0,0,-1541,-192.625
1764842387.273436,0,0,1641,205.125
1764842387.2774525,1,1,3972,496.500
1764842387.2814522,0,0,4492,561.500
1764842387.2854474,0,0,-1088,-136.000
1764842387.289484,0,0,-1834,-229.250
1764842387.293433,0,0,1046,130.750
1764842387.2974517,1,1,3628,453.500
1764842387.301454,0,0,4521,565.125
1764842387.3054488,0,0,-1108,-138.500
1764842387.3094485,0,0,-1849,-231.125
1764842387.3134468,0,0,1096,137.000
1764842387.3174503,1,1,3653,456.625
1764842387.3214521,0,0,4622,577.750
1764842387.32545,0,0,-987,-123.375
1764842387.3294525,0,0,-1882,-235.250
1764842387.3334773,0,0,1005,125.625
1764842387.3374534,1,1,3592,449.000
1764842387.3414497,0,0,4685,585.625
1764842387.3454502,0,0,-863,-107.875
1764842387.349448,0,0,-1915,-239.375
1764842387.3534465,0,0,950,118.750
1764842387.357442,1,1,3558,444.750
1764842387.3614354,0,0,4736,592.000
1764842387.3654325,0,0,-655,-81.875
1764842387.3694553,0,0,-1938,-242.250
1764842387.3734488,0,0,777,97.125
1764842387.3774521,1,1,3445,430.625
1764842387.381452,0,0,4752,594.000
1764842387.3854494,0,0,-493,-61.625
1764842387.3894672,0,0,-1978,-247.250
1764842387.3934462,0,0,813,101.625
1764842387.3974495,1,1,3474,434.250
1764842387.401445,0,0,4791,598.875
1764842387.4054484,0,0,-290,-36.250
1764842387.4094558,0,0,-1987,-248.375
1764842387.4134474,0,0,603,75.375
1764842387.417452,1,1,3333,416.625
1764842387.4214463,0,0,4772,596.500
1764842387.4254472,0,0,-79,-9.875
1764842387.4294467,0,0,-1924,-240.500
1764842387.4334466,0,0,373,46.625
1764842387.43745,1,1,3180,397.500
1764842387.4414456,0,0,4743,592.875
1764842387.4454474,0,0,158,19.750
1764842387.449453,0,0,-2013,-251.625
1764842387.4534488,0,0,280,35.000
1764842387.4627728,0,0,4730,591.250
1764842387.4654696,0,0,497,62.125
1764842387.469444,0,0,-1888,-236.000
1764842387.4734342,0,0,1005,125.625
1764842387.4774516,1,1,3600,450.000
1764842387.4814498,0,0,4847,605.875
1764842387.4854465,0,0,594,74.250
1764842387.489479,0,0,-2086,-260.750
1764842387.4934328,0,0,192,24.000
1764842387.4974484,1,1,3072,384.000
1764842387.5014462,0,0,4678,584.750
1764842387.505444,0,0,863,107.875
1764842387.509443,0,0,-2078,-259.750
1764842387.5134485,0,0,-13,-1.625
1764842387.5174518,1,1,2917,364.625
1764842387.5214486,0,0,4606,575.750
1764842387.5254445,0,0,1103,137.875
1764842387.5294533,0,0,-1869,-233.625
1764842387.5334442,0,0,-311,-38.875
1764842387.5374424,1,1,2706,338.250
1764842387.5414357,0,0,4524,565.500
1764842387.5454278,0,0,1374,171.750
1764842387.5494285,0,0,-1851,-231.375
1764842387.5534313,0,0,-505,-63.125
1764842387.5574484,1,1,2554,319.250
1764842387.5614498,0,0,4454,556.750
1764842387.5654445,0,0,1636,204.500
1764842387.5694487,0,0,-2201,-275.125
1764842387.5734465,0,0,-253,-31.625
1764842387.577453,1,1,2787,348.375
1764842387.581447,0,0,4531,566.375
1764842387.5854511,0,0,1883,235.375
1764842387.5894463,0,0,-1770,-221.250
1764842387.5934818,0,0,-803,-100.375
1764842387.5974495,1,1,2325,290.625
1764842387.6014466,0,0,4333,541.625
1764842387.6054456,0,0,2148,268.500
1764842387.6094494,0,0,-1897,-237.125
1764842387.613444,0,0,-782,-97.750
1764842387.6174457,1,1,2352,294.000
1764842387.6214466,0,0,4323,540.375
1764842387.6254451,0,0,2414,301.750
1764842387.6294477,0,0,-1965,-245.625
1764842387.633443,0,0,-856,-107.000
1764842387.6374485,1,1,2295,286.875
1764842387.6414447,0,0,4281,535.125
1764842387.645444,0,0,2677,334.625
1764842387.6494513,0,0,-2035,-254.375
1764842387.6534472,0,0,-919,-114.875
1764842387.6574438,1,1,2243,280.375
1764842387.6615179,0,0,4238,529.750
1764842387.6654527,0,0,2929,366.125
1764842387.6694355,0,0,-2178,-272.250
1764842387.6734297,0,0,-846,-105.750
1764842387.6774418,1,1,2313,289.125
1764842387.6814437,0,0,3116,389.500
1764842387.6854467,0,0,-1867,-233.375
1764842387.6894412,0,0,-1185,-148.125
1764842387.6934645,0,0,1987,248.375
1764842387.6974468,1,1,4076,509.500
1764842387.7014449,0,0,3322,415.250
1764842387.7054439,0,0,-1948,-243.500
1764842387.7094464,0,0,-1190,-148.750
1764842387.7134438,0,0,1986,248.250
1764842387.7174454,1,1,4054,506.750
1764842387.721442,0,0,3499,437.375
1764842387.725442,0,0,-1694,-211.750
1764842387.729454,0,0,-1376,-172.000
1764842387.733456,0,0,1782,222.750
1764842387.7374487,1,1,3954,494.250
1764842387.741441,0,0,3563,445.375
1764842387.7454395,0,0,-1130,-141.250
1764842387.7494423,0,0,-1702,-212.750
1764842387.7534425,0,0,538,67.250
1764842387.7574403,1,1,3326,415.750
1764842387.7614255,0,0,3853,481.625
1764842387.7654266,0,0,-1784,-223.000
1764842387.7694492,0,0,-1414,-176.750
1764842387.7734456,0,0,1758,219.750
1764842387.7774472,1,1,3959,494.875
1764842387.7814415,0,0,4108,513.500
1764842387.7854395,0,0,-1631,-203.875
1764842387.7894297,0,0,-1558,-194.750
1764842387.7934608,0,0,1581,197.625
1764842387.7974396,1,1,3857,482.125
1764842387.8014448,0,0,4226,528.250
1764842387.8054411,0,0,-1583,-197.875
1764842387.8094456,0,0,-1379,-172.375
1764842387.8134403,0,0,1823,227.875
1764842387.8174462,1,1,3972,496.500
1764842387.8214428,0,0,4345,543.125
1764842387.8254385,0,0,-1205,-150.625
1764842387.8294368,0,0,-1786,-223.250
1764842387.833438,0,0,1196,149.500
1764842387.837448,1,1,3613,451.625
1764842387.8414438,0,0,4373,546.625
1764842387.8454366,0,0,-1242,-155.250
1764842387.8494437,0,0,-1766,-220.750
1764842387.8534384,0,0,1258,157.250
1764842387.8574424,1,1,3644,455.500
1764842387.8615196,0,0,4475,559.375
1764842387.8654542,0,0,-1131,-141.375
1764842387.8694298,0,0,-1592,-199.000
1764842387.873423,0,0,1544,193.000
1764842387.877441,1,1,3798,474.750
1764842387.8814445,0,0,4559,569.875
1764842387.8854425,0,0,-866,-108.250
1764842387.889437,0,0,-1869,-233.625
1764842387.8934226,0,0,962,120.250
1764842387.897481,1,1,3453,431.625
1764842387.901445,0,0,4532,566.500
1764842387.905443,0,0,-684,-85.500
1764842387.9094422,0,0,-1860,-232.500
1764842387.9134386,0,0,801,100.125
1764842387.9174426,1,1,3359,419.875
1764842387.9214418,0,0,4562,570.250
1764842387.9254422,0,0,-479,-59.875
1764842387.9294446,0,0,-1828,-228.500
1764842387.933439,0,0,590,73.750
1764842387.9374437,1,1,3239,404.875
1764842387.9414415,0,0,4577,572.125
1764842387.945442,0,0,-306,-38.250
1764842387.9494405,0,0,-1778,-222.250
1764842387.953438,0,0,379,47.375
1764842387.9574425,1,1,3110,388.750
1764842387.9614377,0,0,4582,572.750
1764842387.9654396,0,0,-148,-18.500
1764842387.9694479,0,0,-1824,-228.000
1764842387.9734416,0,0,408,51.000
1764842387.977476,1,1,3140,392.500
1764842387.9817975,0,0,4620,577.500
1764842387.9855306,0,0,130,16.250
1764842387.9894562,0,0,-1541,-192.625
1764842387.993441,0,0,1676,209.500
1764842387.9974463,1,1,3971,496.375
1764842388.001439,0,0,4843,605.375
1764842388.0054386,0,0,234,29.250
1764842388.009444,0,0,-1835,-229.375
1764842388.0134428,0,0,303,37.875
1764842388.017442,1,1,3078,384.750
1764842388.0214415,0,0,4571,571.375
1764842388.0254369,0,0,509,63.625
1764842388.0294416,0,0,-2080,-260.000
1764842388.0334456,0,0,291,36.375
1764842388.0374448,1,1,3068,383.500
1764842388.0414228,0,0,4552,569.000
1764842388.0454214,0,0,746,93.250
1764842388.0494428,0,0,-2129,-266.125
1764842388.0534399,0,0,231,28.875
1764842388.0574353,1,1,3040,380.000
1764842388.0615096,0,0,4530,566.250
1764842388.0654466,0,0,1030,128.750
1764842388.0694294,0,0,-2161,-270.125
1764842388.0734234,0,0,26,3.250
1764842388.0774393,1,1,2888,361.000
1764842388.0814393,0,0,4451,556.375
1764842388.0854428,0,0,1233,154.125
1764842388.0894346,0,0,-2023,-252.875
1764842388.0934258,0,0,-175,-21.875
1764842388.0974426,1,1,2757,344.625
1764842388.1014404,0,0,4395,549.375
1764842388.1054363,0,0,1486,185.750
1764842388.1094372,0,0,-2125,-265.625
1764842388.1134357,0,0,-218,-27.250
1764842388.1174402,1,1,2735,341.875
1764842388.121438,0,0,4365,545.625
1764842388.1254373,0,0,1728,216.000
1764842388.129444,0,0,-1947,-243.375
1764842388.1334357,0,0,-494,-61.750
1764842388.1374402,1,1,2523,315.375
1764842388.1414387,0,0,4265,533.125
1764842388.1454456,0,0,1972,246.500
1764842388.1494303,0,0,-1945,-243.125
1764842388.1534212,0,0,-594,-74.250
1764842388.1574328,1,1,2456,307.000
1764842388.161439,0,0,4227,528.375
1764842388.1654375,0,0,2237,279.625
1764842388.1694307,0,0,-2131,-266.375
1764842388.1734185,0,0,-572,-71.500
1764842388.1774383,1,1,2491,311.375
1764842388.1814392,0,0,4219,527.375
1764842388.1854382,0,0,2471,308.875
1764842388.18943,0,0,-1760,-220.000
1764842388.1934202,0,0,-1019,-127.375
1764842388.197441,1,1,2089,261.125
1764842388.2014391,0,0,4038,504.750
1764842388.2054372,0,0,2694,336.750
1764842388.2094433,0,0,-1905,-238.125
1764842388.2134354,0,0,-954,-119.250
1764842388.2174387,1,1,2170,271.250
1764842388.2214344,0,0,4060,507.500
1764842388.225435,0,0,2923,365.375
1764842388.229436,0,0,-1563,-195.375
1764842388.233436,0,0,-1342,-167.750
1764842388.2374277,1,1,1769,221.125
1764842388.2414327,0,0,3872,484.000
1764842388.2454367,0,0,3141,392.625
1764842388.2494385,0,0,-1805,-225.625
1764842388.253434,0,0,-1191,-148.875
1764842388.2574377,0,1,1957,244.625
1764842388.2615123,0,0,3953,494.125
1764842388.2654507,0,0,3391,423.875
1764842388.269426,0,0,-2066,-258.250
1764842388.2734194,0,0,-832,-104.000
1764842388.2774346,0,1,2338,292.250
1764842388.281434,0,0,4112,514.000
1764842388.285434,0,0,3531,441.375
1764842388.2894306,0,0,-1650,-206.250
1764842388.2934196,0,0,-1334,-166.750
1764842388.29744,0,0,3854,481.750
1764842388.3014371,0,0,3674,459.250
1764842388.3054338,0,0,-1474,-184.250
1764842388.3094392,0,0,-1493,-186.625
1764842388.3134353,0,0,1630,203.750
1764842388.3174405,0,0,3752,469.000
1764842388.321434,1,1,3813,476.625
1764842388.3254352,0,0,-1262,-157.750
1764842388.3294368,0,0,-1651,-206.375
1764842388.333437,0,0,1410,176.250
1764842388.3374407,0,0,3633,454.125
1764842388.3414397,1,0,3954,494.250
1764842388.3454356,0,0,-1463,-182.875
1764842388.3494334,0,0,-1548,-193.500
1764842388.353434,0,0,1580,197.500
1764842388.3574429,0,0,3720,465.000
1764842388.3614361,0,0,4093,511.625
1764842388.3654327,0,0,-1138,-142.250
1764842388.3694391,0,0,-1727,-215.875
1764842388.3734362,0,0,1282,160.250
1764842388.377438,0,0,3559,444.875
1764842388.381435,1,0,4182,522.750
1764842388.3854325,0,0,-1048,-131.000
1764842388.3894334,0,0,-1764,-220.500
1764842388.3934329,0,0,1185,148.125
1764842388.3974733,0,0,3505,438.125
1764842388.4014344,1,0,4262,532.750
1764842388.4054356,0,0,-847,-105.875
1764842388.4094408,0,0,-1776,-222.000
1764842388.4134302,0,0,758,94.750
1764842388.4174385,0,0,3266,408.250
1764842388.4214375,1,0,4317,539.625
1764842388.4254327,0,0,-785,-98.125
1764842388.4294307,0,0,-1811,-226.375
1764842388.4334307,0,0,915,114.375
1764842388.4374382,0,0,3369,421.125
1764842388.4414332,1,1,4419,552.375
1764842388.4454448,0,0,-643,-80.375
1764842388.4494338,0,0,-1824,-228.000
1764842388.4534152,0,0,789,98.625
1764842388.4574323,0,0,3297,412.125
1764842388.4667628,0,0,-611,-76.375
1764842388.469442,0,0,-1594,-199.250
1764842388.4734173,0,0,1543,192.875
1764842388.4774306,0,0,3753,469.125
1764842388.4814365,1,1,4585,573.125
1764842388.485436,0,0,-329,-41.125
1764842388.4894307,0,0,-1767,-220.875
1764842388.4934175,0,0,377,47.125
1764842388.4974706,0,0,3035,379.375
1764842388.5014348,1,1,4433,554.125
1764842388.5054326,0,0,-252,-31.500
1764842388.509432,0,0,-1934,-241.750
1764842388.5134318,0,0,657,82.125
1764842388.5174356,0,0,3227,403.375
1764842388.521432,1,1,4506,563.250
1764842388.5254312,0,0,-28,-3.500
1764842388.5294392,0,0,-1998,-249.750
1764842388.5334342,0,0,767,95.875
1764842388.537421,0,0,3316,414.500
1764842388.5414171,1,1,4537,567.125
1764842388.5454125,0,0,204,25.500
1764842388.549433,0,0,-1632,-204.000
1764842388.5534365,0,0,-114,-14.250
1764842388.5574348,0,0,2718,339.750
1764842388.561415,1,1,4379,547.375
1764842388.5654159,0,0,435,54.375
1764842388.5694306,0,0,-1084,-135.500
1764842388.5734334,0,0,-1249,-156.125
1764842388.5774288,0,0,1838,229.750
1764842388.581416,1,1,4168,521.000
1764842388.5854204,0,0,854,106.750
1764842388.589438,0,0,-2161,-270.125
1764842388.593435,0,0,322,40.250
1764842388.597441,0,0,3103,387.875
1764842388.6014771,1,1,4587,573.375
1764842388.6054745,0,0,1072,134.000
1764842388.6094828,0,0,-2199,-274.875
1764842388.6134787,0,0,106,13.250
1764842388.6174839,0,0,2975,371.875
1764842388.6214793,1,1,4533,566.625
1764842388.6254728,0,0,1315,164.375
1764842388.629476,0,0,-2208,-276.000
1764842388.633476,0,0,-71,-8.875
1764842388.6374817,0,0,2846,355.750
1764842388.6414764,1,1,4458,557.250
1764842388.6454737,0,0,1551,193.875
1764842388.649481,0,0,-2220,-277.500
1764842388.6534722,0,0,-202,-25.250
1764842388.6574807,0,0,2758,344.750
1764842388.6614792,1,1,4404,550.500
1764842388.6655495,0,0,1806,225.750
1764842388.6694741,0,0,-2250,-281.250
1764842388.6734576,0,0,-202,-25.250
1764842388.677494,0,0,2772,346.500
1764842388.6814811,1,1,4384,548.000
1764842388.6854753,0,0,2025,253.125
1764842388.68947,0,0,-2253,-281.625
1764842388.6934543,0,0,-194,-24.250
1764842388.697494,0,0,2795,349.375
1764842388.701449,1,1,4364,545.500
1764842388.705434,0,0,2271,283.875
1764842388.709427,0,0,-2223,-277.875
1764842388.7134283,0,0,-89,-11.125
1764842388.717434,0,0,2879,359.875
1764842388.7214334,1,1,4355,544.375
1764842388.7254293,0,0,2457,307.125
1764842388.7294369,0,0,-2225,-278.125
1764842388.7334306,0,0,-514,-64.250
1764842388.7374315,0,0,2545,318.125
1764842388.7414498,1,1,4199,524.875
1764842388.7454374,0,0,2644,330.500
1764842388.7494211,0,0,-2139,-267.375
1764842388.7534127,0,0,-699,-87.375
1764842388.757439,0,0,2395,299.375
1764842388.7614343,1,1,4113,514.125
1764842388.7654305,0,0,2853,356.625
1764842388.7694278,0,0,-1888,-236.000
1764842388.7734134,0,0,-984,-123.000
1764842388.7774277,0,0,2133,266.625
1764842388.781432,1,1,3981,497.625
1764842388.785429,0,0,3041,380.125
1764842388.7894204,0,0,-1637,-204.625
1764842388.7934165,0,0,-1257,-157.125
1764842388.7974381,0,0,1859,232.375
1764842388.8014684,1,1,3845,480.625
1764842388.8054311,0,0,3244,405.500
1764842388.8094366,0,0,-1589,-198.625
1764842388.813432,0,0,-1349,-168.625
1764842388.8174345,0,0,1767,220.875
1764842388.8214295,1,1,3796,474.500
1764842388.8254266,0,0,3454,431.750
1764842388.8294327,0,0,-1999,-249.875
1764842388.8334298,0,0,-1031,-128.875
1764842388.837434,0,0,2136,267.000
1764842388.8414288,1,1,3961,495.125
1764842388.8454273,0,0,3636,454.500
1764842388.8494372,0,0,-1883,-235.375
1764842388.85343,0,0,-1204,-150.500
1764842388.8574317,0,0,1952,244.000
1764842388.8614264,1,1,3853,481.625
1764842388.865504,0,0,3775,471.875
1764842388.8694317,0,0,-1838,-229.750
1764842388.8734162,0,0,-1074,-134.250
1764842388.8774314,0,0,2103,262.875
1764842388.8814297,1,1,3910,488.750
1764842388.885428,0,0,3889,486.125
1764842388.8894243,0,0,-1736,-217.000
1764842388.8934157,0,0,-1220,-152.500
1764842388.8974319,0,0,1971,246.375
1764842388.9014676,1,1,3838,479.750
1764842388.9054265,0,0,3985,498.125
1764842388.9094272,0,0,-1598,-199.750
1764842388.913428,0,0,-1367,-170.875
1764842388.9174278,0,0,3755,469.375
1764842388.92143,1,1,4066,508.250
1764842388.9254305,0,0,-1189,-148.625
1764842388.9294322,0,0,-1652,-206.500
1764842388.9334266,0,0,1407,175.875
1764842388.9374313,0,0,3529,441.125
1764842388.941431,1,1,4113,514.125
1764842388.9454272,0,0,-1293,-161.625
1764842388.949423,0,0,-1573,-196.625
1764842388.9534285,0,0,1540,192.500
1764842388.9574344,0,0,3605,450.625
1764842388.9614139,1,1,4196,524.500
1764842388.9654133,0,0,-993,-124.125
1764842388.9694252,0,0,-1727,-215.875
1764842388.973424,0,0,1291,161.375
1764842388.977446,0,0,3470,433.750
1764842388.981789,1,1,4241,530.125
1764842388.9855192,0,0,-929,-116.125
1764842388.9894423,0,0,-1006,-125.750
1764842388.9934254,0,0,2288,286.000
1764842388.9974277,0,0,4023,502.875
1764842389.0014677,1,1,4365,545.625
1764842389.005425,0,0,-628,-78.500
1764842389.0094275,0,0,-1778,-222.250
1764842389.0134177,0,0,984,123.000
1764842389.0174239,0,0,3293,411.625
1764842389.021428,1,1,4247,530.875
1764842389.0254273,0,0,-614,-76.750
1764842389.0294285,0,0,-1814,-226.750
1764842389.0334241,0,0,1138,142.250
1764842389.037422,0,0,3380,422.500
1764842389.0414267,1,1,4288,536.000
1764842389.0454268,0,0,-412,-51.500
1764842389.0494316,0,0,-1838,-229.750
1764842389.053424,0,0,986,123.250
1764842389.057428,0,0,3306,413.250
1764842389.0614395,1,1,4290,536.250
1764842389.0655174,0,0,-195,-24.375
1764842389.0694535,0,0,-1828,-228.500
1764842389.0734274,0,0,734,91.750
1764842389.077432,0,0,3163,395.375
1764842389.081427,1,1,4260,532.500
1764842389.0854325,0,0,16,2.000
1764842389.0894265,0,0,-1752,-219.000
1764842389.0934114,0,0,419,52.375
1764842389.0974276,0,0,2977,372.125
1764842389.1014273,1,1,4226,528.250
1764842389.1054614,0,0,212,26.500
1764842389.1094277,0,0,-1741,-217.625
1764842389.1134257,0,0,272,34.000
1764842389.1174316,0,0,2897,362.125
1764842389.1214256,1,1,4210,526.250
1764842389.1254234,0,0,410,51.250
1764842389.1294286,0,0,-1770,-221.250
1764842389.1334305,0,0,267,33.375
1764842389.1374319,0,0,2923,365.375
1764842389.141425,1,1,4226,528.250
1764842389.1454263,0,0,663,82.875
1764842389.1494298,0,0,-1692,-211.500
1764842389.153427,0,0,-56,-7.000
1764842389.1574254,0,0,2700,337.500
1764842389.1614122,1,1,4146,518.250
1764842389.1654053,0,0,895,111.875
1764842389.1694245,0,0,-1521,-190.125
1764842389.173428,0,0,-544,-68.000
1764842389.1774225,0,0,2346,293.250
1764842389.1814091,1,1,4035,504.375
1764842389.1854055,0,0,1173,146.625
1764842389.1894271,0,0,-1690,-211.250
1764842389.1934261,0,0,-420,-52.500
1764842389.197432,0,0,2477,309.625
1764842389.2014277,1,1,4087,510.875
1764842389.205424,0,0,1441,180.125
1764842389.209424,0,0,-1671,-208.875
1764842389.2134092,0,0,-594,-74.250
1764842389.2174244,0,0,2361,295.125
1764842389.2214274,1,1,4049,506.125
1764842389.2254236,0,0,1726,215.750
1764842389.2294235,0,0,-1680,-210.000
1764842389.233422,0,0,-768,-96.000
1764842389.2374299,0,0,2221,277.625
1764842389.2414224,1,1,3984,498.000
1764842389.2454243,0,0,2008,251.000
1764842389.2494283,0,0,-1930,-241.250
1764842389.2534225,0,0,-571,-71.375
1764842389.2574177,0,0,2428,303.500
1764842389.2614248,1,1,4065,508.125
1764842389.2654998,0,0,2262,282.750
1764842389.2694402,0,0,-1819,-227.375
1764842389.273408,0,0,-802,-100.250
1764842389.2774248,0,0,2244,280.500
1764842389.2814264,1,1,3982,497.750
1764842389.2854254,0,0,2514,314.250
1764842389.2894194,0,0,-1930,-241.250
1764842389.293407,0,0,-823,-102.875
1764842389.2974231,0,0,2238,279.750
1764842389.3014235,1,1,3965,495.625
1764842389.3054621,0,0,2737,342.125
1764842389.3094244,0,0,-1906,-238.250
1764842389.3134205,0,0,-957,-119.625
1764842389.317423,0,0,2118,264.750
1764842389.321422,1,1,3895,486.875
1764842389.3254225,0,0,2938,367.250
1764842389.329431,0,0,-1776,-222.000
1764842389.3334296,0,0,-1104,-138.000
1764842389.3374233,0,0,1991,248.875
1764842389.3414152,1,1,3829,478.625
1764842389.3454225,0,0,3153,394.125
1764842389.3494253,0,0,-2084,-260.500
1764842389.353423,0,0,-896,-112.000
1764842389.3574195,0,0,2222,277.750
1764842389.3614058,1,1,3942,492.750
1764842389.3654037,0,0,3222,402.750
1764842389.3694298,0,0,-1087,-135.875
1764842389.3734238,0,0,-1712,-214.000
1764842389.377428,0,0,599,74.875
1764842389.381425,1,1,3169,396.125
1764842389.3854215,0,0,3511,438.875
1764842389.3894243,0,0,-1799,-224.875
1764842389.3934255,0,0,-1331,-166.375
1764842389.39743,0,0,1795,224.375
1764842389.4014213,1,1,3780,472.500
1764842389.4054198,0,0,3763,470.375
1764842389.4094675,0,0,-1811,-226.375
1764842389.4134254,0,0,-1265,-158.125
1764842389.417429,0,0,1894,236.750
1764842389.4214215,1,1,3828,478.500
1764842389.42542,0,0,3899,487.375
1764842389.4294214,0,0,-1633,-204.125
1764842389.4334216,0,0,-1446,-180.750
1764842389.4374278,0,0,1682,210.250
1764842389.4414237,1,1,3709,463.625
1764842389.4454215,0,0,4002,500.250
1764842389.4494274,0,0,-1369,-171.125
1764842389.4534223,0,0,-1633,-204.125
1764842389.4574282,0,0,1412,176.500
1764842389.4614232,1,1,3545,443.125
1764842389.4708385,0,0,-1266,-158.250
1764842389.4734707,0,0,-1266,-158.250
1764842389.4774392,0,0,1935,241.875
1764842389.4814086,1,1,3836,479.500
1764842389.4854069,0,0,4195,524.375
1764842389.4894233,0,0,-977,-122.125
1764842389.4934237,0,0,-1777,-222.125
1764842389.4974208,0,0,1117,139.625
1764842389.5014093,1,1,3380,422.500
1764842389.5054054,0,0,4185,523.125
1764842389.5094666,0,0,-881,-110.125
1764842389.5134234,0,0,-1798,-224.750
1764842389.517427,0,0,1079,134.875
1764842389.5214238,1,1,3373,421.625
1764842389.5254223,0,0,4257,532.125
1764842389.529425,0,0,-709,-88.625
1764842389.5334194,0,0,913,114.125
1764842389.5374146,0,0,3285,410.625
1764842389.541408,1,1,4298,537.250
1764842389.5454054,0,0,-557,-69.625
1764842389.5494223,0,0,-1806,-225.750
1764842389.5534163,0,0,719,89.875
1764842389.5574243,0,0,3180,397.500
1764842389.5614202,1,1,4322,540.250
1764842389.565424,0,0,-338,-42.250
1764842389.569427,0,0,-1711,-213.875
1764842389.5734248,0,0,219,27.375
1764842389.5774226,0,0,2861,357.625
1764842389.5814059,1,1,4290,536.250
1764842389.5854082,0,0,-223,-27.875
1764842389.5894237,0,0,-1768,-221.000
1764842389.593421,0,0,357,44.625
1764842389.5974123,0,0,2983,372.875
1764842389.601403,1,1,4369,546.125
1764842389.6054037,0,0,-28,-3.500
1764842389.6094632,0,0,-1696,-212.000
1764842389.6134253,0,0,107,13.375
1764842389.6174233,0,0,2842,355.250
1764842389.6214209,1,1,4361,545.125
1764842389.62542,0,0,127,15.875
1764842389.6294117,0,0,-1788,-223.500
1764842389.6334047,0,0,245,30.625
1764842389.637419,0,0,2964,370.500
1764842389.6414185,1,1,4416,552.000
1764842389.6454182,0,0,368,46.000
1764842389.6494272,0,0,-1792,-224.000
1764842389.6534226,0,0,102,12.750
1764842389.6574233,0,0,2875,359.375
1764842389.6614168,1,1,4390,548.750
1764842389.6654158,0,0,669,83.625
1764842389.669504,0,0,-2102,-262.750
1764842389.6734343,0,0,523,65.375
1764842389.677421,0,0,3174,396.750
1764842389.6814063,1,1,4465,558.125
1764842389.6854017,0,0,852,106.500
1764842389.689421,0,0,-2117,-264.625
1764842389.693421,0,0,160,20.000
1764842389.6974168,0,0,2936,367.000
1764842389.701402,1,1,4373,546.625
1764842389.7054005,0,0,1088,136.000
1764842389.7094233,0,0,-2131,-266.375
1764842389.71346,0,0,45,5.625
1764842389.7174242,0,0,2870,358.750
1764842389.7214205,1,1,4333,541.625
1764842389.7254167,0,0,1324,165.500
1764842389.7294216,0,0,-1819,-227.375
1764842389.7334166,0,0,-449,-56.125
1764842389.7374213,0,0,2481,310.125
1764842389.7414193,1,1,4168,521.000
1764842389.7454183,0,0,1576,197.000
1764842389.7494135,0,0,-1982,-247.750
1764842389.753415,0,0,-394,-49.250
1764842389.7574246,0,0,2551,318.875
1764842389.7614186,1,1,4186,523.250
1764842389.7654285,0,0,1853,231.625
1764842389.7694154,0,0,-2174,-271.750
1764842389.7733996,0,0,270,33.750
1764842389.7774165,0,0,3105,388.125
1764842389.7814226,1,1,4373,546.625
1764842389.7854166,0,0,2056,257.000
1764842389.7894027,0,0,-1977,-247.125
1764842389.7933996,0,0,-554,-69.250
1764842389.7974179,0,0,2452,306.500
1764842389.8014178,1,1,4097,512.125
1764842389.8054187,0,0,2305,288.125
1764842389.809424,0,0,-2112,-264.000
1764842389.813431,0,0,-629,-78.625
1764842389.8174202,0,0,2387,298.375
1764842389.8214176,1,1,4042,505.250
1764842389.825417,0,0,2516,314.500
1764842389.829419,0,0,-2000,-250.000
1764842389.8334136,0,0,-801,-100.125
1764842389.8374178,0,0,2252,281.500
1764842389.8414154,1,1,3973,496.625
1764842389.8454175,0,0,2720,340.000
1764842389.8494234,0,0,-1657,-207.125
1764842389.8534172,0,0,-1174,-146.750
1764842389.8574195,0,0,1892,236.500
1764842389.861417,1,1,3802,475.250
1764842389.8654168,0,0,2945,368.125
1764842389.8695035,0,0,-2160,-270.000
1764842389.8734329,0,0,-740,-92.500
1764842389.8774161,0,0,2352,294.000
1764842389.881404,1,1,4001,500.125
1764842389.885401,0,0,3139,392.375
1764842389.889421,0,0,-1714,-214.250
1764842389.8934166,0,0,-1217,-152.125
1764842389.8974118,0,0,1892,236.500
1764842389.9013991,1,1,3787,473.375
1764842389.9053998,0,0,3318,414.750
1764842389.9094243,0,0,-1817,-227.125
1764842389.9134543,0,0,-1193,-149.125
1764842389.9174218,0,0,1925,240.625
1764842389.9214172,1,1,3792,474.000
1764842389.9254148,0,0,3486,435.750
1764842389.9294221,0,0,-1857,-232.125
1764842389.9334142,0,0,-1201,-150.125
1764842389.9374182,0,0,1931,241.375
1764842389.941416,1,1,3782,472.750
1764842389.9454122,0,0,3632,454.000
1764842389.9494152,0,0,-1645,-205.625
1764842389.9534142,0,0,-1357,-169.625
1764842389.9574208,0,0,1766,220.750
1764842389.9614143,1,1,3700,462.500
1764842389.965412,0,0,3766,470.750
1764842389.9694185,0,0,-1363,-170.375
1764842389.9734209,0,0,-1596,-199.500
1764842389.9774551,0,0,1437,179.625
1764842389.9817686,1,1,3513,439.125
1764842389.9855025,0,0,3869,483.625
1764842389.9894285,0,0,-1626,-203.250
1764842389.9934158,0,0,-972,-121.500
1764842389.9974194,0,0,2218,277.250
1764842390.0014179,1,1,3910,488.750
1764842390.0054102,0,0,4002,500.250
1764842390.009417,0,0,-1040,-130.000
1764842390.013412,0,0,-1739,-217.375
1764842390.01746,0,0,1157,144.625
1764842390.0214171,1,1,3354,419.250
1764842390.0254107,0,0,4017,502.125
1764842390.0294137,0,0,-975,-121.875
1764842390.033411,0,0,-1770,-221.250
1764842390.037419,0,0,1100,137.500
1764842390.0414228,1,1,3331,416.375
1764842390.0454123,0,0,4099,512.375
1764842390.0494158,0,0,-815,-101.875
1764842390.0534127,0,0,-1785,-223.125
1764842390.0574203,0,0,760,95.000
1764842390.0614161,1,1,3132,391.500
1764842390.0654144,0,0,4141,517.625
1764842390.0694926,0,0,-822,-102.750
1764842390.0734265,0,0,-1815,-226.875
1764842390.0774124,0,0,1072,134.000
1764842390.0814004,1,1,3341,417.625
1764842390.0854135,0,0,4257,532.125
1764842390.0894206,0,0,-763,-95.375
1764842390.0934122,0,0,-1847,-230.875
1764842390.0974066,0,0,1035,129.375
1764842390.1013987,1,1,3329,416.125
1764842390.105397,0,0,4291,536.375
1764842390.1094189,0,0,-607,-75.875
1764842390.1134136,0,0,-1870,-233.750
1764842390.1174145,0,0,1004,125.500
1764842390.121414,1,1,3314,414.250
1764842390.125413,0,0,4315,539.375
1764842390.1294198,0,0,-420,-52.500
1764842390.133409,0,0,-1906,-238.250
1764842390.1374128,0,0,934,116.750
1764842390.1414099,1,1,3285,410.625
1764842390.1454098,0,0,4319,539.875
1764842390.1494114,0,0,-1903,-237.875
1764842390.1534092,0,0,644,80.500
1764842390.1574154,0,0,3114,389.250
1764842390.1614122,1,1,4290,536.250
1764842390.1654103,0,0,87,10.875
1764842390.1694186,0,0,-1319,-164.875
1764842390.173415,0,0,-855,-106.875
1764842390.1774118,0,0,2082,260.250
1764842390.1814125,1,1,4067,508.375
1764842390.1854177,0,0,300,37.500
1764842390.1894023,0,0,-1932,-241.500
1764842390.193397,0,0,208,26.000
1764842390.1974094,0,0,2894,361.750
1764842390.20141,1,1,4331,541.375
1764842390.2054086,0,0,567,70.875
1764842390.2094061,0,0,-2117,-264.625
1764842390.213397,0,0,285,35.625
1764842390.2174175,0,0,2970,371.250
1764842390.2214124,1,1,4349,543.625
1764842390.2254102,0,0,781,97.625
1764842390.2294054,0,0,-1719,-214.875
1764842390.2333965,0,0,-351,-43.875
1764842390.237409,0,0,2507,313.375
1764842390.24141,1,1,4187,523.375
1764842390.2454085,0,0,1052,131.500
1764842390.2494152,0,0,-1811,-226.375
1764842390.253414,0,0,-433,-54.125
1764842390.2574155,0,0,2453,306.625
1764842390.2614105,1,1,4161,520.125
1764842390.265408,0,0,1326,165.750
1764842390.2694762,0,0,-2212,-276.500
1764842390.2734077,0,0,98,12.250
1764842390.2774022,0,0,2896,362.000
1764842390.2814112,1,1,4309,538.625
1764842390.2854075,0,0,1545,193.125
1764842390.2894137,0,0,-2219,-277.375
1764842390.293409,0,0,-113,-14.125
1764842390.297406,0,0,2762,345.250
1764842390.301396,1,1,4244,530.500
1764842390.305393,0,0,1781,222.625
1764842390.3094127,0,0,-2209,-276.125
1764842390.3134086,0,0,-292,-36.500
1764842390.3174522,0,0,2634,329.250
1764842390.321412,1,1,4172,521.500
1764842390.3254101,0,0,2005,250.625
1764842390.329418,0,0,-1924,-240.500
1764842390.333416,0,0,-657,-82.125
1764842390.3374166,0,0,2340,292.500
1764842390.3413968,1,1,4039,504.875
1764842390.3454106,0,0,2233,279.125
1764842390.3494105,0,0,-1894,-236.750
1764842390.353408,0,0,-789,-98.625
1764842390.3574023,0,0,2237,279.625
1764842390.361394,1,1,3984,498.000
1764842390.3653963,0,0,2454,306.750
1764842390.369414,0,0,-1920,-240.000
1764842390.3734062,0,0,-790,-98.750
1764842390.3774111,0,0,2272,284.000
1764842390.3814137,1,1,3998,499.750
1764842390.385407,0,0,2678,334.750
1764842390.389408,0,0,-1837,-229.625
1764842390.3934052,0,0,-980,-122.500
1764842390.3974118,0,0,2104,263.000
1764842390.401408,1,1,3915,489.375
1764842390.4054072,0,0,2897,362.125
1764842390.409413,0,0,-1731,-216.375
1764842390.4134111,0,0,-1153,-144.125
1764842390.4174454,0,0,1943,242.875
1764842390.421408,1,1,3833,479.125
1764842390.425405,0,0,3104,388.000
1764842390.4294095,0,0,-1644,-205.500
1764842390.4334085,0,0,-1295,-161.875
1764842390.4374075,0,0,1801,225.125
1764842390.4414048,1,1,3762,470.250
1764842390.445407,0,0,3309,413.625
1764842390.4494143,0,0,-1860,-232.500
1764842390.453407,0,0,-1193,-149.125
1764842390.457408,0,0,1925,240.625
1764842390.4614062,1,1,3812,476.500
1764842390.465403,0,0,3488,436.000
1764842390.4747474,0,0,-1153,-144.125
1764842390.4774487,0,0,1974,246.750
1764842390.4814157,1,1,3809,476.125
1764842390.4854047,0,0,3642,455.250
1764842390.4894028,0,0,-1885,-235.625
1764842390.493394,0,0,-1142,-142.750
1764842390.4974077,0,0,2002,250.250
1764842390.5014057,1,1,3821,477.625
1764842390.505405,0,0,3765,470.625
1764842390.5093956,0,0,-1788,-223.500
1764842390.51339,0,0,-1215,-151.875
1764842390.517446,0,0,1944,243.000
1764842390.5214093,1,1,3783,472.875
1764842390.5254054,0,0,3874,484.250
1764842390.5294137,0,0,-1557,-194.625
1764842390.533406,0,0,-1470,-183.750
1764842390.537405,0,0,1631,203.875
1764842390.5413926,1,1,3608,451.000
1764842390.5453873,0,0,3947,493.375
1764842390.5494082,0,0,-1516,-189.500
1764842390.553408,0,0,-1469,-183.625
1764842390.5574114,0,0,1645,205.625
1764842390.5614078,1,1,3612,451.500
1764842390.5654063,0,0,4036,504.500
1764842390.5694096,0,0,-1108,-138.500
1764842390.5734048,0,0,-1712,-214.000
1764842390.5774114,0,0,1278,159.750
1764842390.581412,1,1,3414,426.750
1764842390.585429,0,0,4085,510.625
1764842390.589401,0,0,-1189,-148.625
1764842390.5933883,0,0,-1677,-209.625
1764842390.597408,0,0,1345,168.125
1764842390.6014082,1,1,3447,430.875
1764842390.6054063,0,0,4144,518.000
1764842390.6094027,0,0,-928,-116.000
1764842390.6133907,0,0,-1781,-222.625
1764842390.617408,0,0,1162,145.250
1764842390.6214101,1,1,3357,419.625
1764842390.6254067,0,0,4189,523.625
1764842390.629404,0,0,-820,-102.500
1764842390.6334028,0,0,-1817,-227.125
1764842390.6374047,0,0,1091,136.375
1764842390.6414056,1,1,3316,414.500
1764842390.645407,0,0,4214,526.750
1764842390.6494105,0,0,-683,-85.375
1764842390.6534038,0,0,-1846,-230.750
1764842390.6574068,0,0,1026,128.250
1764842390.6614082,1,1,3284,410.500
1764842390.6654046,0,0,4240,530.000
1764842390.669394,0,0,-390,-48.750
1764842390.673473,0,0,-1831,-228.875
1764842390.6774187,0,0,604,75.500
1764842390.681393,1,1,3028,378.500
1764842390.68539,0,0,4195,524.375
1764842390.6894083,0,0,-289,-36.125
1764842390.693409,0,0,-1903,-237.875
1764842390.6973996,0,0,690,86.250
1764842390.7013898,1,1,3108,388.500
1764842390.7053883,0,0,4238,529.750
1764842390.709409,0,0,-87,-10.875
1764842390.7134058,0,0,-1947,-243.375
1764842390.71741,0,0,636,79.500
1764842390.7214048,1,1,3086,385.750
1764842390.7254035,0,0,4239,529.875
1764842390.7294133,0,0,111,13.875
1764842390.7334065,0,0,-2000,-250.000
1764842390.7374077,0,0,670,83.750
1764842390.7414052,1,1,3130,391.250
1764842390.745404,0,0,4252,531.500
1764842390.7494068,0,0,332,41.500
1764842390.753406,0,0,-1709,-213.625
1764842390.75741,0,0,-7,-0.875
1764842390.7614043,1,1,2672,334.000
1764842390.7654057,0,0,572,71.500
1764842390.7694104,0,0,-1749,-218.625
1764842390.7734063,0,0,-100,-12.500
1764842390.7774084,0,0,2620,327.500
1764842390.7814052,1,1,4091,511.375
1764842390.785401,0,0,833,104.125
1764842390.7893896,0,0,-2123,-265.375
1764842390.7934067,0,0,188,23.500
1764842390.7974126,0,0,2863,357.875
1764842390.8014045,1,1,4171,521.375
1764842390.8054,0,0,1050,131.250
1764842390.8094044,0,0,-2032,-254.000
1764842390.8134036,0,0,20,2.500
1764842390.817401,0,0,2765,345.625
1764842390.8213923,1,1,4128,516.000
1764842390.8253841,0,0,1284,160.500
1764842390.8294036,0,0,-1875,-234.375
1764842390.8334005,0,0,-269,-33.625
1764842390.8374085,0,0,2563,320.375
1764842390.841407,1,1,4044,505.500
1764842390.845404,0,0,1518,189.750
1764842390.8494053,0,0,-1801,-225.125
1764842390.8534012,0,0,-500,-62.500
1764842390.8574092,0,0,2401,300.125
1764842390.8614078,1,1,3977,497.125
1764842390.8654032,0,0,1824,228.000
1764842390.869401,0,0,-2224,-278.000
1764842390.8734748,0,0,-219,-27.375
1764842390.8774219,0,0,2646,330.750
1764842390.8813941,1,1,4052,506.500
1764842390.8853865,0,0,2037,254.625
1764842390.8894026,0,0,-2142,-267.750
1764842390.8934023,0,0,-425,-53.125
1764842390.8973975,0,0,2501,312.625
1764842390.9013896,1,1,3978,497.250
1764842390.9053874,0,0,2272,284.000
1764842390.9094105,0,0,-1944,-243.000
1764842390.9134023,0,0,-802,-100.250
1764842390.9174073,0,0,2160,270.000
1764842390.9214067,1,1,3810,476.250
1764842390.9254017,0,0,2472,309.000
1764842390.9294114,0,0,-2174,-271.750
1764842390.9334013,0,0,-638,-79.750
1764842390.937405,0,0,2348,293.500
1764842390.9414015,1,1,3888,486.000
1764842390.9454024,0,0,2703,337.875
1764842390.9494057,0,0,-2197,-274.625
1764842390.9534018,0,0,-648,-81.000
1764842390.9574046,0,0,2350,293.750
1764842390.9614,1,1,3866,483.250
1764842390.9654028,0,0,2875,359.375
1764842390.9694088,0,0,-2072,-259.000
1764842390.973402,0,0,-834,-104.250
1764842390.9774349,0,0,2206,275.750
1764842390.9817488,1,1,3809,476.125
1764842390.9854956,0,0,2975,371.875
1764842390.9894173,0,0,-1162,-145.250
1764842390.9933991,0,0,-1720,-215.000
1764842390.9974003,0,0,1011,126.375
1764842391.001399,1,1,3269,408.625
1764842391.005398,0,0,3265,408.125
1764842391.0094032,0,0,-2020,-252.500
1764842391.0133982,0,0,-985,-123.125
1764842391.0174031,0,0,2089,261.125
1764842391.0214462,1,1,3770,471.250
1764842391.0254006,0,0,3460,432.500
1764842391.029403,0,0,-1916,-239.500
1764842391.0334015,0,0,-1124,-140.500
1764842391.0373993,0,0,1984,248.000
1764842391.0413985,1,1,3720,465.000
1764842391.0453954,0,0,3603,450.375
1764842391.049397,0,0,-1832,-229.000
1764842391.0534034,0,0,-1203,-150.375
1764842391.0574062,0,0,1903,237.875
1764842391.0614007,1,1,3669,458.625
1764842391.0653956,0,0,3700,462.500
1764842391.0694046,0,0,-1692,-211.500
1764842391.0734718,0,0,-1317,-164.625
1764842391.0774214,0,0,1804,225.500
1764842391.0814023,1,1,3624,453.000
1764842391.0854046,0,0,3812,476.500
1764842391.0894058,0,0,-1625,-203.125
1764842391.0934024,0,0,-1300,-162.500
1764842391.0973952,0,0,1834,229.250
1764842391.1013877,1,1,3634,454.250
1764842391.1053822,0,0,3892,486.500
1764842391.1094058,0,0,-1262,-157.750
1764842391.1134,0,0,-1571,-196.375
1764842391.1174064,0,0,1497,187.125
1764842391.12144,1,1,3461,432.625
1764842391.125401,0,0,3949,493.625
1764842391.129402,0,0,-1098,-137.250
1764842391.1334028,0,0,-1666,-208.250
1764842391.1374009,0,0,1352,169.000
1764842391.1413887,1,1,3388,423.500
1764842391.1453848,0,0,4007,500.875
1764842391.1493988,0,0,-929,-116.125
1764842391.1533978,0,0,-1738,-217.250
1764842391.1573966,0,0,1215,151.875
1764842391.1613855,1,1,3318,414.750
1764842391.1653855,0,0,4056,507.000
1764842391.1694043,0,0,-795,-99.375
1764842391.1733994,0,0,-1783,-222.875
1764842391.177402,0,0,1077,134.625
1764842391.1814032,1,1,3244,405.500
1764842391.1854005,0,0,4088,511.000
1764842391.1893997,0,0,-606,-75.750
1764842391.1933973,0,0,-1785,-223.125
1764842391.1974025,0,0,884,110.500
1764842391.2014031,1,1,3150,393.750
1764842391.2053998,0,0,4118,514.750
1764842391.2094083,0,0,-397,-49.625
1764842391.2134004,0,0,-1735,-216.875
1764842391.2174032,0,0,451,56.375
1764842391.2214148,1,1,2901,362.625
1764842391.2253997,0,0,4106,513.250
1764842391.229401,0,0,-287,-35.875
1764842391.2333977,0,0,-1772,-221.500
1764842391.2374005,0,0,571,71.375
1764842391.2413962,1,1,3012,376.500
1764842391.245399,0,0,4176,522.000
1764842391.2494035,0,0,-148,-18.500
1764842391.2533834,0,0,-1838,-229.750
1764842391.2573931,0,0,577,72.125
1764842391.2613983,1,1,3027,378.375
1764842391.2653992,0,0,4189,523.625
1764842391.2693987,0,0,34,4.250
1764842391.27347,0,0,-1874,-234.250
1764842391.2774124,0,0,531,66.375
1764842391.2813852,1,1,3013,376.625
1764842391.285381,0,0,4191,523.875
1764842391.2894027,0,0,238,29.750
1764842391.2934,0,0,-2015,-251.875
1764842391.2973988,0,0,567,70.875
1764842391.301397,1,1,3059,382.375
1764842391.3053942,0,0,4198,524.750
1764842391.3094027,0,0,438,54.750
1764842391.3134,0,0,-1959,-244.875
1764842391.3174024,0,0,412,51.500
1764842391.321399,1,1,2977,372.125
1764842391.3253963,0,0,4169,521.125
1764842391.3294027,0,0,696,87.000
1764842391.3333979,0,0,-2091,-261.375
1764842391.3374016,0,0,350,43.750
1764842391.3413992,1,1,2947,368.375
1764842391.3453958,0,0,4141,517.625
1764842391.3493958,0,0,913,114.125
1764842391.3533962,0,0,-2119,-264.875
1764842391.3573997,0,0,286,35.750
1764842391.361397,1,1,2921,365.125
1764842391.3653977,0,0,4116,514.500
1764842391.3694022,0,0,1154,144.250
1764842391.3733983,0,0,-2138,-267.250
1764842391.3774018,0,0,130,16.250
1764842391.3814003,1,1,4065,508.125
1764842391.3853931,0,0,1371,171.375
