Timestamp,LO_plus,LO_minus,Raw_ADC,Voltage_mV
1765550905.0760007,0,0,16588,2073.500
1765550905.0778365,0,0,16457,2057.125
1765550905.0815485,1,1,12843,1605.375
1765550905.0856001,0,0,9470,1183.750
1765550905.0895498,0,0,13390,1673.750
1765550905.0935411,0,0,16502,2062.750
1765550905.0975375,0,0,16275,2034.375
1765550905.1015425,1,1,12498,1562.250
1765550905.1055381,0,0,9223,1152.875
1765550905.109534,0,0,13261,1657.625
1765550905.1135375,0,0,16470,2058.750
1765550905.117583,0,0,16463,2057.875
1765550905.1215487,1,1,12887,1610.875
1765550905.12554,0,0,9518,1189.750
1765550905.1295366,0,0,13274,1659.250
1765550905.133538,0,0,16467,2058.375
1765550905.1375358,0,0,16505,2063.125
1765550905.1415396,1,1,12971,1621.375
1765550905.1455364,0,0,9464,1183.000
1765550905.1495903,0,0,12977,1622.125
1765550905.1535523,0,0,16377,2047.125
1765550905.1575363,0,0,16481,2060.125
1765550905.1615431,1,1,12954,1619.250
1765550905.1655478,0,0,9422,1177.750
1765550905.1695452,0,0,12830,1603.750
1765550905.1735423,0,0,16335,2041.875
1765550905.177562,0,0,16621,2077.625
1765550905.18158,1,1,13311,1663.875
1765550905.1855395,0,0,9703,1212.875
1765550905.1895368,0,0,12848,1606.000
1765550905.1935484,0,0,16333,2041.625
1765550905.1975448,0,0,16708,2088.500
1765550905.2015445,1,1,13552,1694.000
1765550905.205537,0,0,9827,1228.375
1765550905.2095358,0,0,12624,1578.000
1765550905.2135808,0,0,16253,2031.625
1765550905.2175398,0,0,16658,2082.250
1765550905.2215424,1,1,13468,1683.500
1765550905.2255445,0,0,9710,1213.750
1765550905.229545,0,0,12406,1550.750
1765550905.2335393,0,0,16184,2023.000
1765550905.2375355,0,0,16723,2090.375
1765550905.241543,1,1,13715,1714.375
1765550905.2455418,0,0,9792,1224.000
1765550905.249543,0,0,11921,1490.125
1765550905.2535465,0,0,16012,2001.500
1765550905.2575455,0,0,16389,2048.625
1765550905.261547,1,1,12928,1616.000
1765550905.2655466,0,0,9040,1130.000
1765550905.2695427,0,0,11272,1409.000
1765550905.2736146,0,0,15829,1978.625
1765550905.2775564,0,0,16538,2067.250
1765550905.2815547,1,1,13386,1673.250
1765550905.2855377,0,0,9577,1197.125
1765550905.2895346,0,0,11993,1499.125
1765550905.293544,0,0,16058,2007.250
1765550905.2975533,0,0,16900,2112.500
1765550905.301552,1,1,14465,1808.125
1765550905.3055315,0,0,10498,1312.250
1765550905.3095329,0,0,11909,1488.625
1765550905.3135357,0,0,15984,1998.000
1765550905.3175364,0,0,16754,2094.250
1765550905.321539,1,1,13972,1746.500
1765550905.3255432,0,0,9965,1245.625
1765550905.3295426,0,0,11489,1436.125
1765550905.333538,0,0,15846,1980.750
1765550905.337534,0,0,16761,2095.125
1765550905.341546,1,1,14139,1767.375
1765550905.345547,0,0,10015,1251.875
1765550905.3495429,0,0,10820,1352.500
1765550905.353538,0,0,15585,1948.125
1765550905.3575335,0,0,16601,2075.125
1765550905.36154,1,1,13785,1723.125
1765550905.3655448,0,0,9662,1207.750
1765550905.369557,0,0,10470,1308.750
1765550905.3735518,0,0,15458,1932.250
1765550905.377543,0,0,16592,2074.000
1765550905.3815475,1,1,13852,1731.500
1765550905.3855429,0,0,9693,1211.625
1765550905.3895416,0,0,10195,1274.375
1765550905.3935409,0,0,15337,1917.125
1765550905.3975408,0,0,16602,2075.250
1765550905.4015431,1,1,13981,1747.625
1765550905.4055343,0,0,9758,1219.750
1765550905.4095328,0,0,9633,1204.125
1765550905.4135435,0,0,15073,1884.125
1765550905.417543,0,0,16488,2061.000
1765550905.4215431,1,1,13784,1723.000
1765550905.4255457,0,0,9563,1195.375
1765550905.429542,0,0,9389,1173.625
1765550905.4335349,0,0,14968,1871.000
1765550905.4375315,0,0,16508,2063.500
1765550905.441543,1,1,13907,1738.375
1765550905.4455445,0,0,9648,1206.000
1765550905.4495432,0,0,8922,1115.250
1765550905.4535437,0,0,14696,1837.000
1765550905.457546,0,0,16381,2047.625
1765550905.4615443,1,1,13675,1709.375
1765550905.4655414,0,0,9406,1175.750
1765550905.4695413,0,0,8366,1045.750
1765550905.4736211,0,0,14384,1798.000
1765550905.4775517,0,0,16257,2032.125
1765550905.481543,1,1,13486,1685.750
1765550905.4855328,0,0,9250,1156.250
1765550905.4895396,0,0,8377,1047.125
1765550905.4935467,0,0,14417,1802.125
1765550905.4975436,0,0,16431,2053.875
1765550905.5015411,1,1,13972,1746.500
1765550905.505535,0,0,9695,1211.875
1765550905.509532,0,0,8387,1048.375
1765550905.5135417,0,0,14320,1790.000
1765550905.5175438,0,0,16432,2054.000
1765550905.5215397,1,1,14019,1752.375
1765550905.5255404,0,0,9722,1215.250
1765550905.5295415,0,0,8149,1018.625
1765550905.5335429,0,0,14128,1766.000
1765550905.5375414,0,0,16420,2052.500
1765550905.5415409,1,1,14106,1763.250
1765550905.545536,0,0,9805,1225.625
1765550905.5495386,0,0,7965,995.625
1765550905.5535436,0,0,13924,1740.500
1765550905.5575397,0,0,16371,2046.375
1765550905.5615416,1,1,14069,1758.625
1765550905.5655298,0,0,9762,1220.250
1765550905.5696192,0,0,7750,968.750
1765550905.5735924,0,0,13719,1714.875
1765550905.5775626,0,0,16371,2046.375
1765550905.5815542,1,1,14208,1776.000
1765550905.585531,0,0,9896,1237.000
1765550905.5896513,0,0,7565,945.625
1765550905.5937052,0,0,13431,1678.875
1765550905.5976462,0,0,16299,2037.375
1765550905.6016448,1,1,14156,1769.500
1765550905.6056538,0,0,9848,1231.000
1765550905.609649,0,0,7617,952.125
1765550905.6136515,0,0,13471,1683.875
1765550905.6176736,0,0,16434,2054.250
1765550905.6216524,1,1,14613,1826.625
1765550905.625689,0,0,10302,1287.750
1765550905.6296678,0,0,7733,966.625
1765550905.6336439,0,0,13344,1668.000
1765550905.6376317,0,0,16434,2054.250
1765550905.6416402,1,1,14707,1838.375
1765550905.6456485,0,0,10397,1299.625
1765550905.6496434,0,0,7852,981.500
1765550905.653638,0,0,13360,1670.000
1765550905.657686,0,0,14901,1862.625
1765550905.661662,1,1,10596,1324.500
1765550905.6656325,0,0,7855,981.875
1765550905.6696334,0,0,13184,1648.000
1765550905.6737084,0,0,16467,2058.375
1765550905.6776533,0,0,15016,1877.000
1765550905.6816556,1,1,10721,1340.125
1765550905.6856616,0,0,7763,970.375
1765550905.6897032,0,0,12902,1612.750
1765550905.6936433,0,0,16413,2051.625
1765550905.6976318,0,0,15078,1884.750
1765550905.7016382,1,1,10795,1349.375
1765550905.7056463,0,0,7626,953.250
1765550905.709647,0,0,12466,1558.250
1765550905.7136407,0,0,16279,2034.875
1765550905.7176273,0,0,14911,1863.875
1765550905.7216988,1,1,10613,1326.625
1765550905.7256453,0,0,7590,948.750
1765550905.7296302,0,0,12471,1558.875
1765550905.7336507,0,0,16361,2045.125
1765550905.7376463,0,0,15320,1915.000
1765550905.7416484,1,1,11078,1384.750
1765550905.7456272,0,0,8046,1005.750
1765550905.7496696,0,0,12782,1597.750
1765550905.7538054,0,0,16501,2062.625
1765550905.757915,0,0,15758,1969.750
1765550905.7616982,1,1,11611,1451.375
1765550905.7656524,0,0,8165,1020.625
1765550905.7696438,0,0,12353,1544.125
1765550905.77365,0,0,16362,2045.250
1765550905.777645,0,0,15544,1943.000
1765550905.7816849,1,1,11345,1418.125
1765550905.7856755,0,0,7840,980.000
1765550905.7896805,0,0,11779,1472.375
1765550905.7936463,0,0,16196,2024.500
1765550905.797648,0,0,15445,1930.625
1765550905.8016531,1,1,11243,1405.375
1765550905.8056433,0,0,7778,972.250
1765550905.8096411,0,0,11542,1442.750
1765550905.8136942,0,0,16108,2013.500
1765550905.8176448,0,0,15256,1907.000
1765550905.8216434,1,1,11009,1376.125
1765550905.8256466,0,0,7825,978.125
1765550905.8296437,0,0,11928,1491.000
1765550905.8336437,0,0,16334,2041.750
1765550905.8376455,0,0,16185,2023.125
1765550905.8416526,1,1,12254,1531.750
1765550905.8456416,0,0,8467,1058.375
1765550905.8496406,0,0,11539,1442.375
1765550905.8536446,0,0,16185,2023.125
1765550905.857647,0,0,15889,1986.125
1765550905.8616486,1,1,11828,1478.500
1765550905.8656452,0,0,8208,1026.000
1765550905.8696682,0,0,11362,1420.250
1765550905.8737197,0,0,16153,2019.125
1765550905.8776565,0,0,16084,2010.500
1765550905.8816507,1,1,12126,1515.750
1765550905.885634,0,0,8384,1048.000
1765550905.8896685,0,0,11180,1397.500
1765550905.893649,0,0,16098,2012.250
1765550905.8976471,0,0,16164,2020.500
1765550905.901653,1,1,12264,1533.000
1765550905.905631,0,0,8492,1061.500
1765550905.909626,0,0,11084,1385.500
1765550905.9136453,0,0,16070,2008.750
1765550905.9176428,0,0,16261,2032.625
1765550905.9216459,1,1,12429,1553.625
1765550905.9256473,0,0,8560,1070.000
1765550905.929643,0,0,10726,1340.750
1765550905.9336457,0,0,15936,1992.000
1765550905.9376423,0,0,16175,2021.875
1765550905.9416482,1,1,12325,1540.625
1765550905.9456291,0,0,8451,1056.375
1765550905.949628,0,0,10399,1299.875
1765550905.9536507,0,0,15835,1979.375
1765550905.957644,0,0,16326,2040.750
1765550905.9616404,1,1,12625,1578.125
1765550905.9656312,0,0,8514,1064.250
1765550905.9696305,0,0,9308,1163.500
1765550905.9736428,0,0,15341,1917.625
1765550905.97764,0,0,15788,1973.500
1765550905.9816465,1,1,11889,1486.125
1765550905.9856308,0,0,8265,1033.125
1765550905.9897301,0,0,10515,1314.375
1765550905.9936957,0,0,15917,1989.625
1765550905.997687,0,0,16781,2097.625
1765550906.0016842,1,1,13486,1685.750
1765550906.005689,0,0,9345,1168.125
1765550906.0096886,0,0,10183,1272.875
1765550906.013695,0,0,15709,1963.625
1765550906.0176833,0,0,16482,2060.250
1765550906.021687,1,1,12933,1616.625
1765550906.0256853,0,0,8896,1112.000
1765550906.0296888,0,0,9776,1222.000
1765550906.0336916,0,0,15556,1944.500
1765550906.0376914,0,0,16506,2063.250
1765550906.0416858,1,1,13047,1630.875
1765550906.0456867,0,0,8975,1121.875
1765550906.0496867,0,0,9518,1189.750
1765550906.053692,0,0,15425,1928.125
1765550906.0576875,0,0,16521,2065.125
1765550906.0616953,1,1,13137,1642.125
1765550906.0656655,0,0,9040,1130.000
1765550906.0696638,0,0,9402,1175.250
1765550906.0805025,1,1,13496,1687.000
1765550906.0824091,1,1,13496,1687.000
1765550906.0856714,0,0,9332,1166.500
1765550906.0897572,0,0,9352,1169.000
1765550906.0937088,0,0,15299,1912.375
1765550906.0976562,0,0,16666,2083.250
1765550906.1016915,1,1,13517,1689.625
1765550906.1056747,0,0,9352,1169.000
1765550906.1096303,0,0,9239,1154.875
1765550906.1136267,0,0,15225,1903.125
1765550906.1176293,0,0,16685,2085.625
1765550906.121634,1,1,13608,1701.000
1765550906.125628,0,0,9393,1174.125
1765550906.129625,0,0,8748,1093.500
1765550906.133627,0,0,14920,1865.000
1765550906.1376262,0,0,16568,2071.000
1765550906.1416304,1,1,13484,1685.500
1765550906.1456604,0,0,9301,1162.625
1765550906.149645,0,0,8636,1079.500
1765550906.1536286,0,0,14849,1856.125
1765550906.1576257,0,0,16659,2082.375
1765550906.1616309,1,1,13748,1718.500
1765550906.1656463,0,0,9529,1191.125
1765550906.1696415,0,0,8637,1079.625
1765550906.1736412,0,0,14799,1849.875
1765550906.1776369,0,0,16756,2094.500
1765550906.1816487,1,1,14050,1756.250
1765550906.1856298,0,0,9794,1224.250
1765550906.189665,0,0,8710,1088.750
1765550906.1936889,0,0,14777,1847.125
1765550906.1976352,0,0,16815,2101.875
1765550906.2016346,1,1,14243,1780.375
1765550906.2056422,0,0,9963,1245.375
1765550906.2096417,0,0,8630,1078.750
1765550906.2136314,0,0,14657,1832.125
1765550906.2176244,0,0,16832,2104.000
1765550906.221689,1,1,14399,1799.875
1765550906.2256508,0,0,10098,1262.250
1765550906.2296264,0,0,8396,1049.500
1765550906.2336361,0,0,14418,1802.250
1765550906.2376375,0,0,16758,2094.750
1765550906.2416415,1,1,14345,1793.125
1765550906.2456264,0,0,10036,1254.500
1765550906.249623,0,0,7929,991.125
1765550906.2536523,0,0,13960,1745.000
1765550906.2576814,0,0,16565,2070.625
1765550906.2616584,1,1,14075,1759.375
1765550906.2656248,0,0,9798,1224.750
1765550906.2696261,0,0,8007,1000.875
1765550906.2736464,0,0,16750,2093.750
1765550906.2776988,0,0,14586,1823.250
1765550906.281652,1,1,10270,1283.750
1765550906.2856271,0,0,8038,1004.750
1765550906.2896638,0,0,13897,1737.125
1765550906.2936473,0,0,16720,2090.000
1765550906.2976422,0,0,14632,1829.000
1765550906.3016477,1,1,10313,1289.125
1765550906.3056233,0,0,7831,978.875
1765550906.309625,0,0,13585,1698.125
1765550906.313623,0,0,16644,2080.500
1765550906.3176246,0,0,14625,1828.125
1765550906.321631,1,1,10311,1288.875
1765550906.3256414,0,0,7866,983.250
1765550906.3296387,0,0,13575,1696.875
1765550906.3336437,0,0,16718,2089.750
1765550906.3376405,0,0,14922,1865.250
1765550906.3416424,1,1,10606,1325.750
1765550906.3456376,0,0,7924,990.500
1765550906.3496377,0,0,13407,1675.875
1765550906.3536441,0,0,16689,2086.125
1765550906.357639,0,0,14969,1871.125
1765550906.3616397,1,1,10647,1330.875
1765550906.365639,0,0,7579,947.375
1765550906.3696365,0,0,12737,1592.125
1765550906.3736439,0,0,16457,2057.125
1765550906.377639,0,0,14686,1835.750
1765550906.3816426,1,1,10379,1297.375
1765550906.385621,0,0,7507,938.375
1765550906.3897243,0,0,12729,1591.125
1765550906.3936942,0,0,16553,2069.125
1765550906.3976882,0,0,15078,1884.750
1765550906.4016864,1,1,10779,1347.375
1765550906.4056666,0,0,7651,956.375
1765550906.4096606,0,0,12558,1569.750
1765550906.4136832,0,0,16538,2067.250
1765550906.4176843,0,0,15192,1899.000
1765550906.4216855,1,1,10903,1362.875
1765550906.4256635,0,0,7615,951.875
1765550906.4296613,0,0,12231,1528.875
1765550906.4336839,0,0,16457,2057.125
1765550906.4376843,0,0,15199,1899.875
1765550906.441685,1,1,10922,1365.250
1765550906.445685,0,0,7614,951.750
1765550906.4496803,0,0,12059,1507.375
1765550906.45367,0,0,16446,2055.750
1765550906.4576626,0,0,15354,1919.250
1765550906.461671,1,1,11096,1387.000
1765550906.465685,0,0,7587,948.375
1765550906.4696825,0,0,11547,1443.375
1765550906.473683,0,0,16265,2033.125
1765550906.4777513,0,0,15153,1894.125
1765550906.4817002,1,1,10888,1361.000
1765550906.4856696,0,0,7520,940.000
1765550906.4897542,0,0,11486,1435.750
1765550906.4936392,0,0,16326,2040.750
1765550906.4976385,0,0,15520,1940.000
1765550906.501642,1,1,11308,1413.500
1765550906.5056252,0,0,7685,960.625
1765550906.509624,0,0,11058,1382.250
1765550906.5136442,0,0,16144,2018.000
1765550906.5176353,0,0,15234,1904.250
1765550906.521633,1,1,10994,1374.250
1765550906.5256202,0,0,7542,942.750
1765550906.529623,0,0,10980,1372.500
1765550906.5336392,0,0,16226,2028.250
1765550906.5376322,0,0,15754,1969.250
1765550906.541642,1,1,11614,1451.750
1765550906.5456398,0,0,7903,987.875
1765550906.549642,0,0,10830,1353.750
1765550906.553674,0,0,16182,2022.750
1765550906.557646,0,0,15810,1976.250
1765550906.5616868,1,1,11688,1461.000
1765550906.5656366,0,0,7858,982.250
1765550906.5696201,0,0,10150,1268.750
1765550906.5736384,0,0,15889,1986.125
1765550906.5776381,0,0,15477,1934.625
1765550906.5816383,1,1,11327,1415.875
1765550906.5856178,0,0,7702,962.750
1765550906.589658,0,0,10048,1256.000
1765550906.5936384,0,0,15913,1989.125
1765550906.5976386,0,0,15759,1969.875
1765550906.6016362,1,1,11670,1458.750
1765550906.6056361,0,0,7983,997.875
1765550906.6096368,0,0,10184,1273.000
1765550906.6136427,0,0,16017,2002.125
1765550906.6176386,0,0,16160,2020.000
1765550906.6216419,1,1,12189,1523.625
1765550906.6256366,0,0,8336,1042.000
1765550906.6296399,0,0,10052,1256.500
1765550906.6336453,0,0,15927,1990.875
1765550906.6376386,0,0,16038,2004.750
1765550906.6416402,1,1,12033,1504.125
1765550906.6456215,0,0,8217,1027.125
1765550906.6496155,0,0,9743,1217.875
1765550906.6536374,0,0,15829,1978.625
1765550906.6576376,0,0,16181,2022.625
1765550906.6616392,1,1,12263,1532.875
1765550906.6656206,0,0,8417,1052.125
1765550906.669616,0,0,9783,1222.875
1765550906.673632,0,0,15864,1983.000
1765550906.6777012,0,0,16462,2057.750
1765550906.6816528,1,1,12689,1586.125
1765550906.6856213,0,0,8573,1071.625
1765550906.6896527,0,0,8592,1074.000
1765550906.6936364,0,0,15184,1898.000
1765550906.6976376,0,0,15844,1980.500
1765550906.7016401,1,1,11964,1495.500
1765550906.70562,0,0,8262,1032.750
1765550906.7096167,0,0,9422,1177.750
1765550906.7136369,0,0,15734,1966.750
1765550906.7176368,0,0,16710,2088.750
1765550906.7216382,1,1,13146,1643.250
1765550906.7256336,0,0,9026,1128.250
1765550906.7296362,0,0,9047,1130.875
1765550906.7336373,0,0,15452,1931.500
1765550906.7376318,0,0,16480,2060.000
1765550906.7416346,1,1,12840,1605.000
1765550906.7456365,0,0,8855,1106.875
1765550906.7496412,0,0,9095,1136.875
1765550906.7537684,0,0,15494,1936.750
1765550906.7578819,0,0,16690,2086.250
1765550906.7616842,1,1,13195,1649.375
1765550906.7656376,0,0,9099,1137.375
1765550906.7696345,0,0,8835,1104.375
1765550906.7736342,0,0,15312,1914.000
1765550906.7776313,0,0,16660,2082.500
1765550906.7816339,1,1,13212,1651.500
1765550906.7856326,0,0,9088,1136.000
1765550906.7896752,0,0,8214,1026.750
1765550906.7936356,0,0,14847,1855.875
1765550906.797629,0,0,16303,2037.875
1765550906.8016346,1,1,12756,1594.500
1765550906.8056324,0,0,8791,1098.875
1765550906.8096309,0,0,8167,1020.875
1765550906.813624,0,0,14893,1861.625
1765550906.8176122,0,0,16602,2075.250
1765550906.8216243,1,1,13265,1658.125
1765550906.8256335,0,0,9187,1148.375
1765550906.8296335,0,0,8334,1041.750
1765550906.8336356,0,0,14933,1866.625
1765550906.8376324,0,0,16783,2097.875
1765550906.8416338,1,1,13611,1701.375
1765550906.845634,0,0,9429,1178.625
1765550906.8496268,0,0,7809,976.125
1765550906.8536386,0,0,14422,1802.750
1765550906.8576334,0,0,16536,2067.000
1765550906.861635,1,1,13340,1667.500
1765550906.8656309,0,0,9256,1157.000
1765550906.8696337,0,0,7922,990.250
1765550906.8736396,0,0,14553,1819.125
1765550906.8777032,0,0,16777,2097.125
1765550906.8816445,1,1,13772,1721.500
1765550906.885619,0,0,9592,1199.000
1765550906.88965,0,0,14385,1798.125
1765550906.8936353,0,0,16820,2102.500
1765550906.8976343,0,0,13959,1744.875
1765550906.9016368,1,1,9743,1217.875
1765550906.9056158,0,0,7524,940.500
1765550906.909615,0,0,13913,1739.125
1765550906.9136364,0,0,16594,2074.250
1765550906.9176366,0,0,13691,1711.375
1765550906.921636,1,1,9540,1192.500
1765550906.9256258,0,0,7446,930.750
1765550906.9296322,0,0,13864,1733.000
1765550906.9336398,0,0,16723,2090.375
1765550906.937637,0,0,14003,1750.375
1765550906.94164,1,1,9801,1225.125
1765550906.9456177,0,0,7409,926.125
1765550906.949613,0,0,13620,1702.500
1765550906.9536335,0,0,16684,2085.500
1765550906.957634,0,0,14043,1755.375
1765550906.961633,1,1,9847,1230.875
1765550906.965621,0,0,7453,931.625
1765550906.9696145,0,0,13613,1701.625
1765550906.9736342,0,0,16817,2102.125
1765550906.977635,0,0,14380,1797.500
1765550906.9816375,1,1,10136,1267.000
1765550906.9856317,0,0,7563,945.375
1765550906.9896681,0,0,13535,1691.875
1765550906.9936361,0,0,16865,2108.125
1765550906.9976282,0,0,14562,1820.250
1765550907.0016305,1,1,10300,1287.500
1765550907.005634,0,0,7758,969.750
1765550907.009634,0,0,13613,1701.625
1765550907.0136378,0,0,16956,2119.500
1765550907.0176277,0,0,14784,1848.000
1765550907.0216384,1,1,10490,1311.250
1765550907.025634,0,0,7597,949.625
1765550907.029631,0,0,13136,1642.000
1765550907.0336301,0,0,16791,2098.875
1765550907.0376263,0,0,14649,1831.125
1765550907.0416286,1,1,10379,1297.375
1765550907.045632,0,0,7470,933.750
1765550907.0496292,0,0,12908,1613.500
1765550907.0536351,0,0,16817,2102.125
1765550907.05763,0,0,14913,1864.125
1765550907.061635,1,1,10631,1328.875
1765550907.065612,0,0,7509,938.625
1765550907.0696144,0,0,12642,1580.250
1765550907.0736327,0,0,16765,2095.625
1765550907.0829105,1,1,10697,1337.125
1765550907.0856497,0,0,7637,954.625
1765550907.0896752,0,0,12743,1592.875
1765550907.0936263,0,0,16894,2111.750
1765550907.0976114,0,0,15354,1919.250
1765550907.1016228,1,1,11063,1382.875
1765550907.105631,0,0,7612,951.500
1765550907.1096296,0,0,12119,1514.875
1765550907.1136208,0,0,16639,2079.875
1765550907.117614,0,0,15041,1880.125
1765550907.1216261,1,1,10773,1346.625
1765550907.1256301,0,0,7588,948.500
1765550907.129631,0,0,12179,1522.375
1765550907.1336346,0,0,16748,2093.500
1765550907.1376324,0,0,15372,1921.500
1765550907.1416335,1,1,11095,1386.875
1765550907.145629,0,0,7708,963.500
1765550907.1496277,0,0,11935,1491.875
1765550907.153631,0,0,16704,2088.000
1765550907.1576295,0,0,15487,1935.875
1765550907.1616354,1,1,11222,1402.750
1765550907.1656377,0,0,7607,950.875
1765550907.1696289,0,0,11256,1407.000
1765550907.1736236,0,0,16473,2059.125
1765550907.1776137,0,0,15396,1924.500
1765550907.1816235,1,1,11164,1395.500
1765550907.1856291,0,0,7723,965.375
1765550907.1896422,0,0,11456,1432.000
1765550907.193618,0,0,16620,2077.500
1765550907.1976132,0,0,15751,1968.875
1765550907.2016199,1,1,11528,1441.000
1765550907.2056267,0,0,7909,988.625
1765550907.2096245,0,0,11226,1403.250
1765550907.2136295,0,0,16549,2068.625
1765550907.217625,0,0,15786,1973.250
1765550907.221632,1,1,11577,1447.125
1765550907.225629,0,0,7999,999.875
1765550907.2296233,0,0,11102,1387.750
1765550907.2336261,0,0,16486,2060.750
1765550907.2376282,0,0,15702,1962.750
1765550907.2416286,1,1,11483,1435.375
1765550907.245629,0,0,7822,977.750
1765550907.2496235,0,0,10362,1295.250
1765550907.253629,0,0,16238,2029.750
1765550907.257625,0,0,15746,1968.250
1765550907.2616305,1,1,11589,1448.625
1765550907.2656262,0,0,7966,995.750
1765550907.2696252,0,0,10450,1306.250
1765550907.2736278,0,0,16338,2042.250
1765550907.2776227,0,0,16095,2011.875
1765550907.2817097,1,1,11991,1498.875
1765550907.2856421,0,0,8184,1023.000
1765550907.2896674,0,0,10070,1258.750
1765550907.2936199,0,0,16166,2020.750
1765550907.2976077,0,0,16028,2003.500
1765550907.3016198,1,1,11941,1492.625
1765550907.3056288,0,0,8176,1022.000
1765550907.3096259,0,0,9857,1232.125
1765550907.3136144,0,0,16093,2011.625
1765550907.3176093,0,0,16118,2014.750
1765550907.3216143,1,1,12070,1508.750
1765550907.3256269,0,0,8346,1043.250
1765550907.3296227,0,0,10047,1255.875
1765550907.333626,0,0,16216,2027.000
1765550907.3376188,0,0,16459,2057.375
1765550907.3416257,1,1,12492,1561.500
1765550907.3456306,0,0,8531,1066.375
1765550907.349633,0,0,9255,1156.875
1765550907.3536217,0,0,15769,1971.125
1765550907.35761,0,0,16092,2011.500
1765550907.3616133,1,1,12114,1514.250
1765550907.365622,0,0,8377,1047.125
1765550907.3696256,0,0,9402,1175.250
1765550907.3736186,0,0,15924,1990.500
1765550907.3776124,0,0,16510,2063.750
1765550907.3816097,1,1,12646,1580.750
1765550907.3856244,0,0,8693,1086.625
1765550907.3896399,0,0,9000,1125.000
1765550907.3936226,0,0,15677,1959.625
1765550907.3976178,0,0,16430,2053.750
1765550907.4016163,1,1,12605,1575.625
1765550907.4056215,0,0,8734,1091.750
1765550907.4096217,0,0,9113,1139.125
1765550907.4136238,0,0,15727,1965.875
1765550907.4176164,0,0,16559,2069.875
1765550907.4216208,1,1,12767,1595.875
1765550907.4256225,0,0,8852,1106.500
1765550907.4296186,0,0,8955,1119.375
1765550907.4336212,0,0,15649,1956.125
1765550907.4376183,0,0,16746,2093.250
1765550907.4416206,1,1,13083,1635.375
1765550907.4456222,0,0,9062,1132.750
1765550907.4496174,0,0,8615,1076.875
1765550907.4536233,0,0,15382,1922.750
1765550907.4576182,0,0,16628,2078.500
1765550907.4616203,1,1,12989,1623.625
1765550907.4656208,0,0,9033,1129.125
1765550907.469619,0,0,8507,1063.375
1765550907.4736147,0,0,15294,1911.750
1765550907.4776087,0,0,16701,2087.625
1765550907.4817,1,1,13130,1641.250
1765550907.4856405,0,0,9131,1141.375
1765550907.4896615,0,0,8264,1033.000
1765550907.4936173,0,0,15104,1888.000
1765550907.4976077,0,0,16747,2093.375
1765550907.5016131,1,1,13283,1660.375
1765550907.505626,0,0,9254,1156.750
1765550907.5096195,0,0,14870,1858.750
1765550907.5136116,0,0,16690,2086.250
1765550907.5176077,0,0,13267,1658.375
1765550907.5216136,1,1,9253,1156.625
1765550907.525625,0,0,7838,979.750
1765550907.5296218,0,0,14677,1834.625
1765550907.533621,0,0,16762,2095.250
1765550907.537618,0,0,13470,1683.750
1765550907.5416214,1,1,9420,1177.500
1765550907.5456219,0,0,7753,969.125
1765550907.549622,0,0,14525,1815.625
1765550907.5536215,0,0,16815,2101.875
1765550907.5576162,0,0,13627,1703.375
1765550907.5616229,1,1,9561,1195.125
1765550907.565614,0,0,7755,969.375
1765550907.5696309,0,0,14314,1789.250
1765550907.5736215,0,0,16638,2079.750
1765550907.577615,0,0,13393,1674.125
1765550907.5816166,1,1,9388,1173.500
1765550907.5856228,0,0,7523,940.375
1765550907.5896368,0,0,14178,1772.250
1765550907.5936155,0,0,16853,2106.625
1765550907.5976074,0,0,13849,1731.125
1765550907.6016095,1,1,9751,1218.875
1765550907.6056223,0,0,7534,941.750
1765550907.6096177,0,0,13881,1735.125
1765550907.6136215,0,0,16680,2085.000
1765550907.6176162,0,0,13651,1706.375
1765550907.6216173,1,1,9622,1202.750
1765550907.6256156,0,0,7697,962.125
1765550907.6296184,0,0,14225,1778.125
1765550907.6336203,0,0,17166,2145.750
1765550907.637612,0,0,14499,1812.375
1765550907.641612,1,1,10287,1285.875
1765550907.6456175,0,0,7774,971.750
1765550907.6496203,0,0,13922,1740.250
1765550907.6536207,0,0,17043,2130.375
1765550907.6576183,0,0,14384,1798.000
1765550907.6616158,1,1,10191,1273.875
1765550907.6656115,0,0,7466,933.250
1765550907.6696186,0,0,13464,1683.000
1765550907.6736202,0,0,16932,2116.500
1765550907.677614,0,0,14393,1799.125
1765550907.681696,1,1,10223,1277.875
1765550907.685631,0,0,7560,945.000
1765550907.689657,0,0,13471,1683.875
1765550907.6936176,0,0,17035,2129.375
1765550907.697606,0,0,14640,1830.000
1765550907.7016115,1,1,10423,1302.875
1765550907.7056203,0,0,7416,927.000
1765550907.7096179,0,0,12994,1624.250
1765550907.7136106,0,0,16914,2114.250
1765550907.7176075,0,0,14648,1831.000
1765550907.7216153,1,1,10450,1306.250
1765550907.7256215,0,0,7345,918.125
1765550907.7296174,0,0,12689,1586.125
1765550907.7336185,0,0,16855,2106.875
1765550907.7376258,0,1,14708,1838.500
1765550907.7416224,1,1,10512,1314.000
1765550907.7456055,0,0,7428,928.500
1765550907.7496047,0,0,12644,1580.500
1765550907.75375,0,0,16919,2114.875
1765550907.7578924,1,1,14909,1863.625
1765550907.761664,1,1,10687,1335.875
1765550907.765625,0,0,7448,931.000
1765550907.7696142,0,0,12418,1552.250
1765550907.7736204,0,0,16911,2113.875
1765550907.7776127,1,1,15065,1883.125
1765550907.7816162,1,1,10836,1354.500
1765550907.7856174,0,0,7424,928.000
1765550907.7896583,0,0,11976,1497.000
1765550907.7936125,0,0,16775,2096.875
1765550907.797611,1,1,15055,1881.875
1765550907.8016233,1,1,10847,1355.875
1765550907.8056192,0,0,7467,933.375
1765550907.809616,0,0,11805,1475.625
1765550907.8136108,0,0,16758,2094.750
1765550907.8176084,1,1,15158,1894.750
1765550907.821611,1,1,10948,1368.500
1765550907.825616,0,0,7643,955.375
1765550907.829615,0,0,11975,1496.875
1765550907.8336122,0,0,16938,2117.250
1765550907.8376095,1,1,15569,1946.125
1765550907.8416107,1,1,11329,1416.125
1765550907.845615,0,0,7595,949.375
1765550907.849615,0,0,10842,1355.250
1765550907.853613,0,0,16272,2034.000
1765550907.85761,1,1,14860,1857.500
1765550907.8616161,1,1,10756,1344.500
1765550907.8656201,0,0,7381,922.625
1765550907.8696158,0,0,10825,1353.125
1765550907.873617,0,0,16481,2060.125
1765550907.8776112,1,1,15320,1915.000
1765550907.8816888,1,1,11156,1394.500
1765550907.8856301,0,0,7625,953.125
1765550907.8896558,0,0,10829,1353.625
1765550907.8936117,0,0,16609,2076.125
1765550907.8976035,1,1,15719,1964.875
1765550907.9016058,1,1,11545,1443.125
1765550907.905615,0,0,7754,969.250
1765550907.9096165,0,0,10062,1257.750
1765550907.9136095,0,0,16155,2019.375
1765550907.9176028,1,1,15368,1921.000
1765550907.921609,1,1,11278,1409.750
1765550907.925618,0,0,7753,969.125
1765550907.9296181,0,0,10328,1291.000
1765550907.9336197,0,0,16463,2057.875
1765550907.9376132,1,1,15892,1986.500
1765550907.9416182,1,1,11760,1470.000
1765550907.945613,0,0,8028,1003.500
1765550907.949602,0,0,10076,1259.500
1765550907.9536152,0,0,16351,2043.875
1765550907.9576135,1,1,15937,1992.125
1765550907.9616137,1,1,11833,1479.125
1765550907.9656165,0,0,8184,1023.000
1765550907.9696155,0,0,10246,1280.750
1765550907.9736192,0,0,16499,2062.375
1765550907.9776125,1,1,16258,2032.250
1765550907.981619,1,1,12162,1520.250
1765550907.9856265,0,0,8372,1046.500
1765550907.9896235,0,0,9938,1242.250
1765550907.9936051,0,0,16339,2042.375
1765550907.9976027,1,1,16238,2029.750
1765550908.0016065,1,1,12175,1521.875
1765550908.0056136,0,0,8339,1042.375
1765550908.0096142,0,0,9244,1155.500
1765550908.0136101,0,0,15910,1988.750
1765550908.0176032,1,1,15994,1999.250
1765550908.0216072,1,1,11998,1499.750
1765550908.025616,0,0,8277,1034.625
1765550908.0296123,0,0,9014,1126.750
1765550908.0336149,0,0,15844,1980.500
1765550908.0376103,1,1,16157,2019.625
1765550908.0416102,1,1,12201,1525.125
1765550908.045615,0,0,8425,1053.125
1765550908.0496118,0,0,8746,1093.250
1765550908.0536115,0,0,15666,1958.250
1765550908.0576062,1,1,16196,2024.500
1765550908.0616128,1,1,12298,1537.250
1765550908.065601,0,0,8471,1058.875
1765550908.0695977,0,0,8217,1027.125
1765550908.0736065,0,0,15264,1908.000
1765550908.0776076,1,1,16120,2015.000
1765550908.0870266,0,0,8951,1118.875
1765550908.0896754,0,0,8951,1118.875
1765550908.0936198,0,0,15899,1987.375
1765550908.0976028,1,1,16769,2096.125
1765550908.101614,1,1,12962,1620.250
1765550908.1056178,0,0,9024,1128.000
1765550908.109619,0,0,8527,1065.875
1765550908.1136076,0,0,15495,1936.875
1765550908.1175973,1,1,16554,2069.250
1765550908.1216092,1,1,12793,1599.125
1765550908.1256201,0,0,8143,1017.875
1765550908.1296186,0,0,15163,1895.375
1765550908.13362,0,0,16475,2059.375
1765550908.137614,1,1,12792,1599.000
1765550908.1416209,1,1,8991,1123.875
1765550908.1456227,0,0,8171,1021.375
1765550908.1496234,0,0,15254,1906.750
1765550908.153611,0,0,16769,2096.125
1765550908.1576,1,1,13164,1645.500
1765550908.1616077,1,1,9248,1156.000
1765550908.1656153,0,0,8118,1014.750
1765550908.169617,0,0,15166,1895.750
1765550908.1736054,0,0,16878,2109.750
1765550908.1775987,1,1,13353,1669.125
1765550908.1816053,1,1,9396,1174.500
1765550908.1856165,0,0,7854,981.750
1765550908.1896493,0,0,14728,1841.000
1765550908.193617,0,0,16653,2081.625
1765550908.197616,1,1,13182,1647.750
1765550908.201616,1,1,9334,1166.750
1765550908.205599,0,0,7876,984.500
1765550908.2095988,0,0,14828,1853.500
1765550908.2136197,0,0,16915,2114.375
1765550908.2176154,1,1,13529,1691.125
1765550908.221621,1,1,9554,1194.250
1765550908.2256148,0,0,7508,938.500
1765550908.229614,0,0,14198,1774.750
1765550908.2336195,0,0,16625,2078.125
1765550908.237615,1,1,13346,1668.250
1765550908.241617,1,1,9493,1186.625
1765550908.2456133,0,0,7531,941.375
1765550908.2496116,0,0,14262,1782.750
1765550908.253619,0,0,16857,2107.125
1765550908.2576153,1,1,13658,1707.250
1765550908.261622,1,1,9709,1213.625
1765550908.265614,0,0,7394,924.250
1765550908.2696116,0,0,13931,1741.375
1765550908.2736168,0,0,16810,2101.250
1765550908.2776148,1,1,13731,1716.375
1765550908.2816164,1,1,9796,1224.500
1765550908.285699,0,0,7434,929.250
1765550908.289669,0,0,13937,1742.125
1765550908.2936122,0,0,16997,2124.625
1765550908.297601,1,1,14029,1753.625
1765550908.3016102,1,1,10013,1251.625
1765550908.3056166,0,0,7312,914.000
1765550908.3096123,0,0,13480,1685.000
1765550908.3136053,0,0,16806,2100.750
1765550908.3175993,1,1,13938,1742.250
1765550908.3216076,1,1,10002,1250.250
1765550908.325619,0,0,7645,955.625
1765550908.3296149,0,0,14008,1751.000
1765550908.3336155,0,0,17278,2159.750
1765550908.3376079,1,1,14523,1815.375
1765550908.34162,1,1,10403,1300.375
1765550908.3456159,0,0,7368,921.000
1765550908.3496122,0,0,13157,1644.625
1765550908.3536127,0,0,16883,2110.375
1765550908.3576107,1,1,14238,1779.750
1765550908.3616173,1,1,10238,1279.750
1765550908.365602,0,0,7534,941.750
1765550908.3695996,0,0,13510,1688.750
1765550908.3736134,0,0,17247,2155.875
1765550908.3776088,1,1,14737,1842.125
1765550908.3816173,1,1,10609,1326.125
1765550908.3856003,0,0,7716,964.500
1765550908.389699,0,0,13502,1687.750
1765550908.3936648,0,0,17355,2169.375
1765550908.3976572,1,1,14997,1874.625
1765550908.401655,1,1,10821,1352.625
1765550908.4056587,0,0,7822,977.750
1765550908.4096584,0,0,13320,1665.000
1765550908.4136612,0,0,17286,2160.750
1765550908.4176533,1,1,14966,1870.750
1765550908.4216592,1,1,10793,1349.125
1765550908.4256585,0,0,7518,939.750
1765550908.4296584,0,0,12600,1575.000
1765550908.4336622,0,0,17040,2130.000
1765550908.4376543,1,1,14894,1861.750
1765550908.4416544,1,1,10773,1346.625
1765550908.4456527,0,0,7458,932.250
1765550908.4496574,0,0,12289,1536.125
1765550908.4536636,0,0,16982,2122.750
1765550908.457657,1,1,14987,1873.375
1765550908.4616573,1,1,10867,1358.375
1765550908.4656534,0,0,7564,945.500
1765550908.4696565,0,0,12219,1527.375
1765550908.4736621,0,0,17026,2128.250
1765550908.4776554,1,1,15146,1893.250
1765550908.4816527,1,1,11005,1375.625
1765550908.485723,0,0,7697,962.125
1765550908.4897604,0,0,12238,1529.750
1765550908.4936156,0,0,17175,2146.875
1765550908.4975986,1,1,15514,1939.250
1765550908.501612,1,1,11321,1415.125
1765550908.5056112,0,0,7753,969.125
1765550908.5096097,0,0,11664,1458.000
1765550908.5136027,0,0,16843,2105.375
1765550908.517597,1,1,15205,1900.625
1765550908.5216055,1,1,11084,1385.500
1765550908.525611,0,0,7687,960.875
1765550908.5296102,0,0,11685,1460.625
1765550908.5336158,0,0,17077,2134.625
1765550908.537609,1,1,15757,1969.625
1765550908.5416148,1,1,11575,1446.875
1765550908.5456142,0,0,8015,1001.875
1765550908.5496159,0,0,11693,1461.625
1765550908.5536094,0,0,17106,2138.250
1765550908.5575967,1,1,15877,1984.625
1765550908.5615985,1,1,11682,1460.250
1765550908.565598,0,0,7978,997.250
1765550908.5695934,0,0,11095,1386.875
1765550908.5735934,0,0,16834,2104.250
1765550908.5775924,1,1,15747,1968.375
1765550908.5816042,1,1,11602,1450.250
1765550908.5856166,0,0,8035,1004.375
1765550908.589649,0,0,11016,1377.000
1765550908.5936139,0,0,16862,2107.750
1765550908.5976088,1,1,15927,1990.875
1765550908.601613,1,1,11772,1471.500
1765550908.605598,0,0,8139,1017.375
1765550908.6095936,0,0,10804,1350.500
1765550908.613613,0,0,16821,2102.625
1765550908.6176105,1,1,16084,2010.500
1765550908.621611,1,1,11941,1492.625
1765550908.6256132,0,0,8356,1044.500
1765550908.6296105,0,0,10998,1374.750
1765550908.6336129,0,0,16966,2120.750
1765550908.6376102,1,1,16375,2046.875
1765550908.6416125,1,1,12223,1527.875
1765550908.6456122,0,0,8377,1047.125
1765550908.6496103,0,0,10114,1264.250
1765550908.6536133,0,0,16479,2059.875
1765550908.6576073,1,1,16072,2009.000
1765550908.6616118,1,1,12002,1500.250
1765550908.6656127,0,0,8355,1044.375
1765550908.66961,0,0,10026,1253.250
1765550908.6736138,0,0,16444,2055.500
1765550908.677609,1,1,16120,2015.000
1765550908.6816072,1,1,12056,1507.000
1765550908.6856863,0,0,8312,1039.000
1765550908.6896653,0,0,9223,1152.875
1765550908.69361,0,0,15944,1993.000
1765550908.6975923,1,1,16015,2001.875
1765550908.7015986,1,1,12084,1510.500
1765550908.7056108,0,0,8436,1054.500
1765550908.7096114,0,0,9214,1151.750
1765550908.7136028,0,0,15911,1988.875
1765550908.7175906,1,1,16053,2006.625
1765550908.7215993,1,1,12140,1517.500
1765550908.7256112,0,0,8471,1058.875
1765550908.7296076,0,0,8847,1105.875
1765550908.733614,0,0,15785,1973.125
1765550908.7376082,1,1,16259,2032.375
1765550908.7416131,1,1,8761,1095.125
1765550908.7456079,0,0,9399,1174.875
1765550908.7496133,0,0,16241,2030.125
1765550908.753746,0,0,16712,2089.000
1765550908.757885,1,1,12784,1598.000
1765550908.7616596,1,1,9026,1128.250
1765550908.765609,0,0,9459,1182.375
1765550908.7696042,0,0,16313,2039.125
1765550908.7736108,0,0,16993,2124.125
1765550908.7776055,1,1,13132,1641.500
1765550908.7816124,1,1,9203,1150.375
1765550908.7856061,0,0,8763,1095.375
1765550908.7896452,0,0,15668,1958.500
1765550908.7936087,0,0,16584,2073.000
1765550908.7976065,1,1,12796,1599.500
1765550908.801614,1,1,9076,1134.500
1765550908.8056061,0,0,8806,1100.750
1765550908.8096042,0,0,15819,1977.375
1765550908.8135955,0,0,16898,2112.250
1765550908.8176012,1,1,13145,1643.125
1765550908.8216028,1,1,9282,1160.250
1765550908.825612,0,0,8487,1060.875
1765550908.8296077,0,0,15492,1936.500
1765550908.8336115,0,0,16836,2104.500
1765550908.8376076,1,1,13164,1645.500
1765550908.8416107,1,1,9344,1168.000
1765550908.845611,0,0,8454,1056.750
1765550908.8496077,0,0,15508,1938.500
1765550908.8536105,0,0,17042,2130.250
1765550908.857609,1,1,13443,1680.375
1765550908.8616126,1,1,9549,1193.625
1765550908.8656096,0,0,8394,1049.250
1765550908.8696046,0,0,15376,1922.000
1765550908.8736093,0,0,17075,2134.375
1765550908.8776035,1,1,13535,1691.875
1765550908.8816118,1,1,9615,1201.875
1765550908.88568,0,0,8036,1004.500
1765550908.889662,0,0,14944,1868.000
1765550908.8936036,0,0,16960,2120.000
1765550908.8975892,1,1,13527,1690.875
1765550908.901603,1,1,9657,1207.125
1765550908.9056106,0,0,8002,1000.250
1765550908.9096084,0,0,14870,1858.750
1765550908.9135988,0,0,17059,2132.375
1765550908.9175894,1,1,13695,1711.875
1765550908.9215994,1,1,9808,1226.000
1765550908.9256113,0,0,8190,1023.750
1765550908.929606,0,0,14950,1868.750
1765550908.9336188,0,0,17158,2144.750
1765550908.9376101,1,1,13814,1726.750
1765550908.9416132,1,1,9861,1232.625
1765550908.9455905,0,0,7626,953.250
1765550908.9495893,0,0,14248,1781.000
1765550908.9536104,0,0,16987,2123.375
1765550908.9576042,1,1,13847,1730.875
1765550908.961605,1,1,9960,1245.000
1765550908.9655933,0,0,7896,987.000
1765550908.9695904,0,0,14582,1822.750
1765550908.9736116,0,0,17353,2169.125
1765550908.9776053,1,1,14286,1785.750
1765550908.9816067,1,1,10250,1281.250
1765550908.9856088,0,0,7762,970.250
1765550908.989642,0,0,14200,1775.000
1765550908.993613,0,0,17262,2157.750
1765550908.9976068,1,1,14308,1788.500
1765550909.0016046,1,1,10295,1286.875
1765550909.0055892,0,0,7710,963.750
1765550909.0095913,0,0,13938,1742.250
1765550909.0136073,0,0,17171,2146.375
1765550909.0176086,1,1,14280,1785.000
1765550909.0216095,1,1,10298,1287.250
1765550909.0256057,0,0,7849,981.125
1765550909.0296028,0,0,14143,1767.875
1765550909.0336115,0,0,17465,2183.125
1765550909.0376055,1,1,14712,1839.000
1765550909.0416048,1,1,10609,1326.125
1765550909.0456052,0,0,7666,958.250
1765550909.0496037,0,0,13516,1689.500
1765550909.0536096,0,0,17220,2152.500
1765550909.057606,1,1,14589,1823.625
1765550909.0616093,1,1,10554,1319.250
1765550909.065589,0,0,7638,954.750
1765550909.069586,0,0,13398,1674.750
1765550909.0736039,0,0,17291,2161.375
1765550909.077605,1,1,14790,1848.750
1765550909.0816057,1,0,10722,1340.250
1765550909.0909448,0,0,13507,1688.375
1765550909.0936284,0,0,17437,2179.625
1765550909.0976071,1,1,15029,1878.625
1765550909.101608,1,0,10898,1362.250
1765550909.1055913,0,0,7667,958.375
1765550909.1095858,0,0,12888,1611.000
1765550909.1136048,0,0,17200,2150.000
1765550909.1176076,1,1,14933,1866.625
1765550909.1216054,0,0,10854,1356.750
1765550909.1255891,0,0,7548,943.500
1765550909.1295865,0,0,12312,1539.000
1765550909.1336043,0,0,16867,2108.375
1765550909.1376011,1,1,14743,1842.875
1765550909.1416104,0,0,10770,1346.250
1765550909.1456022,0,0,7383,922.875
1765550909.1496217,0,0,11853,1481.625
1765550909.1535938,0,0,16792,2099.000
1765550909.1575878,1,1,14917,1864.625
1765550909.161596,0,0,10943,1367.875
1765550909.165607,0,0,7650,956.250
1765550909.1696024,0,0,12226,1528.250
1765550909.173621,0,0,17201,2150.125
1765550909.1775956,1,1,15397,1924.625
1765550909.181599,0,0,11275,1409.375
1765550909.1856074,0,0,7727,965.875
1765550909.1896193,0,0,11616,1452.000
1765550909.1936052,0,0,16734,2091.750
1765550909.197602,1,1,15047,1880.875
1765550909.2016006,0,0,11079,1384.875
1765550909.2056038,0,0,7680,960.000
1765550909.209605,0,0,11556,1444.500
1765550909.213607,0,0,16975,2121.875
1765550909.2175996,1,1,15468,1933.500
1765550909.2216027,0,0,11392,1424.000
1765550909.225604,0,0,7797,974.625
1765550909.2296016,0,0,11217,1402.125
1765550909.2336051,0,0,16830,2103.750
1765550909.2375977,1,1,15492,1936.500
1765550909.2416,0,0,11447,1430.875
1765550909.2456012,0,0,7797,974.625
1765550909.2496014,0,0,10721,1340.125
1765550909.2536054,0,0,16546,2068.250
1765550909.2576013,1,1,15456,1932.000
1765550909.2616024,0,0,11496,1437.000
1765550909.2656026,0,0,8001,1000.125
1765550909.2696013,0,0,11022,1377.750
1765550909.2736058,0,0,16912,2114.000
1765550909.2775993,1,1,15860,1982.500
1765550909.281598,0,0,11770,1471.250
1765550909.2855995,0,0,8150,1018.750
1765550909.2896774,0,0,10883,1360.375
1765550909.2936525,0,0,16920,2115.000
1765550909.2975898,1,1,16041,2005.125
1765550909.3015985,0,0,11945,1493.125
1765550909.3056035,0,0,8256,1032.000
1765550909.3096006,0,0,10411,1301.375
1765550909.3135943,0,0,16479,2059.875
1765550909.317585,1,1,15723,1965.375
1765550909.321596,0,0,11756,1469.500
1765550909.325603,0,0,8158,1019.750
1765550909.3295991,0,0,10022,1252.750
1765550909.3336053,0,0,16459,2057.375
1765550909.3375978,1,1,16011,2001.375
1765550909.341607,0,0,12034,1504.250
1765550909.345601,0,0,8422,1052.750
1765550909.3495977,0,0,10195,1274.375
1765550909.3535995,0,0,16674,2084.250
1765550909.3575997,1,1,12273,1534.125
1765550909.3615997,0,0,8529,1066.125
1765550909.3656113,0,0,9753,1219.125
1765550909.369601,0,0,16391,2048.875
1765550909.3735917,0,0,16275,2034.375
1765550909.3775806,1,1,12317,1539.625
1765550909.3816006,0,0,8382,1047.750
1765550909.3856034,0,0,8312,1039.000
1765550909.3895967,0,0,14854,1856.750
1765550909.3936696,0,0,15455,1931.875
1765550909.3976278,1,1,12091,1511.375
1765550909.4016328,0,0,8822,1102.750
1765550909.4056482,0,0,10019,1252.375
1765550909.409643,0,0,16706,2088.250
1765550909.4136426,0,0,16824,2103.000
1765550909.4176419,1,1,12826,1603.250
1765550909.42165,0,0,9039,1129.875
1765550909.4256454,0,0,9622,1202.750
1765550909.4296453,0,0,16462,2057.750
1765550909.4336445,0,0,16823,2102.875
1765550909.4376402,1,1,12891,1611.375
1765550909.4416442,0,0,9020,1127.500
1765550909.4456463,0,0,8757,1094.625
1765550909.4496439,0,0,15581,1947.625
1765550909.453648,0,0,16327,2040.875
1765550909.4576387,1,1,12636,1579.500
1765550909.4616427,0,0,9024,1128.000
1765550909.4656448,0,0,8792,1099.000
1765550909.4696443,0,0,15676,1959.500
1765550909.4736474,0,0,16523,2065.375
1765550909.4776392,1,1,12798,1599.750
1765550909.4816399,0,0,9148,1143.500
1765550909.4856443,0,0,8793,1099.125
1765550909.4897192,0,0,15736,1967.000
1765550909.4937403,0,0,16712,2089.000
1765550909.4975874,1,1,12978,1622.250
1765550909.5015907,0,0,9251,1156.375
1765550909.505602,0,0,8478,1059.750
1765550909.5096009,0,0,15538,1942.250
1765550909.5135942,0,0,16857,2107.125
1765550909.517582,1,1,13213,1651.625
1765550909.5215971,0,0,9426,1178.250
1765550909.5255988,0,0,8356,1044.500
1765550909.5295994,0,0,15422,1927.750
1765550909.5336018,0,0,16963,2120.375
1765550909.5375957,1,1,13379,1672.375
1765550909.5415995,0,0,9515,1189.375
1765550909.545597,0,0,7704,963.000
1765550909.5496023,0,0,14258,1782.250
1765550909.553603,0,0,16188,2023.500
1765550909.5575955,1,1,13061,1632.625
1765550909.561592,0,0,9518,1189.750
1765550909.565581,0,0,7534,941.750
1765550909.5695798,0,0,13964,1745.500
1765550909.5735953,0,0,16137,2017.125
1765550909.5775955,1,1,13147,1643.375
1765550909.5816019,0,0,9663,1207.875
1765550909.5855806,0,0,7588,948.500
1765550909.5895784,0,0,13763,1720.375
1765550909.593598,0,0,16007,2000.875
1765550909.5976152,1,1,13133,1641.625
1765550909.6015992,0,0,9763,1220.375
1765550909.605598,0,0,7890,986.250
1765550909.609594,0,0,14522,1815.250
1765550909.6136003,0,0,16940,2117.500
1765550909.6175983,1,1,13750,1718.750
1765550909.6216009,0,0,9954,1244.250
1765550909.6255968,0,0,7124,890.500
1765550909.6295927,0,0,12983,1622.875
1765550909.6335979,0,0,15862,1982.750
1765550909.637596,1,1,13356,1669.500
1765550909.6415973,0,0,10020,1252.500
1765550909.6455817,0,0,7424,928.000
1765550909.6495795,0,0,13497,1687.125
1765550909.653597,0,0,16494,2061.750
1765550909.6575956,1,1,13777,1722.125
1765550909.661599,0,0,10198,1274.750
1765550909.6655986,0,0,7329,916.125
1765550909.6695945,0,0,13037,1629.625
1765550909.6735978,0,0,16212,2026.500
1765550909.677595,1,1,13725,1715.625
1765550909.6815977,0,0,10283,1285.375
1765550909.6855967,0,0,7558,944.750
1765550909.68967,0,0,13327,1665.875
1765550909.6936023,0,0,16604,2075.500
1765550909.697619,1,1,14009,1751.125
1765550909.7015927,0,0,10406,1300.750
1765550909.7055998,0,0,7286,910.750
1765550909.7095995,0,0,12732,1591.500
1765550909.7135875,0,0,16376,2047.000
1765550909.7175777,1,1,14071,1758.875
1765550909.721589,0,0,10556,1319.500
1765550909.72559,0,0,7368,921.000
1765550909.7295816,0,0,12644,1580.500
1765550909.7335987,0,0,16476,2059.500
1765550909.7376137,1,1,14241,1780.125
1765550909.741608,0,0,10680,1335.000
1765550909.7456002,0,0,7364,920.500
1765550909.7495975,0,0,12403,1550.375
1765550909.7537327,0,0,16441,2055.125
1765550909.75788,1,1,14347,1793.375
1765550909.7616467,0,0,10794,1349.250
1765550909.765601,0,0,7307,913.375
1765550909.7695959,0,0,11934,1491.750
1765550909.773603,0,0,16135,2016.875
1765550909.7775922,1,1,14288,1786.000
1765550909.7815974,0,0,10865,1358.125
1765550909.785593,0,0,7408,926.000
1765550909.7895956,0,0,11730,1466.250
1765550909.7935958,0,0,16042,2005.250
1765550909.7976367,1,1,14326,1790.750
1765550909.8015993,0,0,10936,1367.000
1765550909.8055956,0,0,7366,920.750
1765550909.809596,0,0,11468,1433.500
1765550909.8135886,0,0,16093,2011.625
1765550909.8175824,1,1,14541,1817.625
1765550909.8215883,0,0,11114,1389.250
1765550909.8255947,0,0,7401,925.125
1765550909.8295953,0,0,11019,1377.375
1765550909.8335953,0,0,15774,1971.750
1765550909.8375964,1,1,14477,1809.625
1765550909.8415933,0,0,11180,1397.500
1765550909.8455913,0,0,7364,920.500
1765550909.8495913,0,0,10371,1296.375
1765550909.8535938,0,0,15220,1902.500
1765550909.857593,1,1,14265,1783.125
1765550909.8615947,0,0,11199,1399.875
1765550909.8655915,0,0,7637,954.625
1765550909.8695898,0,0,10504,1313.000
1765550909.8735957,0,0,15259,1907.375
1765550909.877594,1,1,14288,1786.000
1765550909.8815975,0,0,11226,1403.250
1765550909.8855956,0,0,7815,976.875
1765550909.8896708,0,0,10844,1355.500
1765550909.8936014,0,0,16014,2001.750
1765550909.8976173,1,1,14951,1868.875
1765550909.901591,0,0,11547,1443.375
1765550909.9055965,0,0,7751,968.875
1765550909.9095929,0,0,10033,1254.125
1765550909.9135842,0,0,15359,1919.875
1765550909.917578,1,1,14737,1842.125
1765550909.9215915,0,0,11595,1449.375
1765550909.925596,0,0,7848,981.000
1765550909.929589,0,0,9693,1211.625
1765550909.9335942,0,0,15132,1891.500
1765550909.937594,1,1,14738,1842.250
1765550909.9415998,0,0,11687,1460.875
1765550909.9456015,0,0,8026,1003.250
1765550909.9495943,0,0,9655,1206.875
1765550909.9535823,0,0,15216,1902.000
1765550909.9575746,1,1,14910,1863.750
1765550909.9615839,0,0,11817,1477.125
1765550909.9655948,0,0,8150,1018.750
1765550909.9695938,0,0,9450,1181.250
1765550909.9735823,0,0,15106,1888.250
1765550909.9775708,1,1,11905,1488.125
1765550909.9815845,0,0,8336,1042.000
1765550909.9855788,0,0,9529,1191.125
1765550909.9895763,0,0,15416,1927.000
1765550909.9935918,0,0,15321,1915.125
1765550909.9976945,1,1,12123,1515.375
1765550910.0016372,0,0,8415,1051.875
1765550910.0056376,0,0,8914,1114.250
1765550910.0096383,0,0,14660,1832.500
1765550910.0136442,0,0,14916,1864.500
1765550910.0176313,1,1,12040,1505.000
1765550910.021638,0,0,8545,1068.125
1765550910.0256207,0,0,8821,1102.625
1765550910.029617,0,0,14792,1849.000
1765550910.033637,0,0,15198,1899.750
1765550910.0376327,1,1,12254,1531.750
1765550910.0416355,0,0,8640,1080.000
1765550910.0456352,0,0,8250,1031.250
1765550910.0496361,0,0,14066,1758.250
1765550910.0536401,0,0,14819,1852.375
1765550910.0576324,1,1,12192,1524.000
1765550910.0616372,0,0,8644,1080.500
1765550910.0656161,0,0,7221,902.625
1765550910.0696151,0,0,12807,1600.875
1765550910.073634,0,0,14139,1767.375
1765550910.0776362,1,1,12065,1508.125
1765550910.0816329,0,0,8992,1124.000
1765550910.0856326,0,0,7873,984.125
1765550910.0968013,1,1,14695,1836.875
1765550910.0986884,1,1,12312,1539.000
1765550910.1016018,0,0,9217,1152.125
1765550910.1055894,0,0,8334,1041.750
1765550910.1096184,0,0,14319,1789.875
1765550910.1136036,0,0,15366,1920.750
1765550910.117595,1,1,12648,1581.000
1765550910.121592,0,0,9215,1151.875
1765550910.1255763,0,0,7187,898.375
1765550910.129574,0,0,12741,1592.625
1765550910.1335962,0,0,14416,1802.000
1765550910.1375937,1,1,12386,1548.250
1765550910.1415954,0,0,9418,1177.250
1765550910.1455884,0,0,7306,913.250
1765550910.14959,0,0,12941,1617.625
1765550910.1535926,0,0,14723,1840.375
1765550910.1575887,1,1,12619,1577.375
1765550910.161588,0,0,9572,1196.500
1765550910.165591,0,0,6954,869.250
1765550910.1695898,0,0,12289,1536.125
1765550910.1735916,0,0,14338,1792.250
1765550910.1775875,1,1,12537,1567.125
1765550910.1815963,0,0,9733,1216.625
1765550910.1855936,0,0,7029,878.625
1765550910.1895876,0,0,12354,1544.250
1765550910.193589,0,0,14512,1814.000
1765550910.1976304,1,1,12698,1587.250
1765550910.2015955,0,0,9922,1240.250
1765550910.2055793,0,0,7190,898.750
1765550910.2095718,0,0,12520,1565.000
1765550910.2135913,0,0,14746,1843.250
1765550910.2175891,1,1,12877,1609.625
1765550910.221593,0,0,10038,1254.750
1765550910.2255743,0,0,6728,841.000
1765550910.2295725,0,0,11609,1451.125
1765550910.2335908,0,0,14157,1769.625
1765550910.237589,1,1,12710,1588.750
1765550910.2415895,0,0,10160,1270.000
1765550910.2455907,0,0,6667,833.375
1765550910.2495916,0,0,11175,1396.875
1765550910.253592,0,0,13834,1729.250
1765550910.257587,1,1,12610,1576.250
1765550910.2615867,0,0,10280,1285.000
1765550910.2655892,0,0,6896,862.000
1765550910.2695897,0,0,11774,1471.750
1765550910.2735908,0,0,14621,1827.625
1765550910.2775855,1,1,13141,1642.625
1765550910.2815886,0,0,10544,1318.000
1765550910.2855752,0,0,6869,858.625
1765550910.2895737,0,0,11428,1428.500
1765550910.2936735,0,0,14418,1802.250
1765550910.2976413,1,1,13124,1640.500
1765550910.30168,0,0,10664,1333.000
1765550910.3056836,0,0,7006,875.750
1765550910.3096611,0,0,11649,1456.125
1765550910.3135986,0,0,14783,1847.875
1765550910.3175728,1,1,13405,1675.625
1765550910.3215818,0,0,10826,1353.250
1765550910.3255904,0,0,6716,839.500
1765550910.329592,0,0,10685,1335.625
1765550910.3335805,0,0,14028,1753.500
1765550910.3375702,1,1,13116,1639.500
1765550910.3415823,0,0,10901,1362.625
1765550910.3455913,0,0,6981,872.625
1765550910.3495908,0,0,10948,1368.500
1765550910.3535943,0,0,14365,1795.625
1765550910.3575907,1,1,13367,1670.875
1765550910.36159,0,0,11046,1380.750
1765550910.3655896,0,0,6917,864.625
1765550910.3695874,0,0,10684,1335.500
1765550910.3736124,0,0,14347,1793.375
1765550910.377595,1,1,13491,1686.375
1765550910.3815942,0,0,11218,1402.250
1765550910.3855727,0,0,7145,893.125
1765550910.3895712,0,0,10828,1353.500
1765550910.393588,0,0,14596,1824.500
1765550910.3976266,1,1,13709,1713.625
1765550910.401591,0,0,11364,1420.500
1765550910.4055738,0,0,7193,899.125
1765550910.4095852,0,0,10534,1316.750
1765550910.413589,0,0,14420,1802.500
1765550910.4175873,1,1,13703,1712.875
1765550910.421593,0,0,11437,1429.625
1765550910.4255884,0,0,6853,856.625
1765550910.429584,0,0,9398,1174.750
1765550910.4335833,0,0,13505,1688.125
1765550910.4375875,1,1,13339,1667.375
1765550910.4415896,0,0,11471,1433.875
1765550910.4455743,0,0,6939,867.375
1765550910.4495678,0,0,9009,1126.125
1765550910.453589,0,0,13205,1650.625
1765550910.4575908,1,1,13272,1659.000
1765550910.4615917,0,0,11561,1445.125
1765550910.4655867,0,0,7198,899.750
1765550910.4695847,0,0,9156,1144.500
1765550910.4735873,0,0,13429,1678.625
1765550910.477586,1,1,13481,1685.125
1765550910.4815888,0,0,11703,1462.875
1765550910.4855893,0,0,7169,896.125
1765550910.489582,0,0,8600,1075.000
1765550910.4936671,0,0,13028,1628.500
1765550910.4976401,1,1,13389,1673.625
1765550910.5015955,0,0,11799,1474.875
1765550910.5055704,0,0,7311,913.875
1765550910.5095716,0,0,8272,1034.000
1765550910.5135884,0,0,12741,1592.625
1765550910.517583,1,1,13312,1664.000
1765550910.5215862,0,0,11877,1484.625
1765550910.5255728,0,0,7602,950.250
1765550910.529574,0,0,8424,1053.000
1765550910.533591,0,0,12948,1618.500
1765550910.5375826,1,1,13506,1688.250
1765550910.5415833,0,0,11998,1499.750
1765550910.5456233,0,0,7479,934.875
1765550910.5495968,0,0,7481,935.125
1765550910.5535827,0,0,12079,1509.875
1765550910.5575686,1,1,13132,1641.500
1765550910.5615754,0,0,12006,1500.750
1765550910.565571,0,0,7819,977.375
1765550910.5695715,0,0,7643,955.375
1765550910.5735717,0,0,12247,1530.875
1765550910.577568,1,1,13297,1662.125
1765550910.5815763,0,0,12128,1516.000
1765550910.5855823,0,0,8079,1009.875
1765550910.5895867,0,0,7777,972.125
1765550910.5935912,0,0,13582,1697.750
1765550910.5975955,1,1,12310,1538.750
1765550910.6015816,0,0,8311,1038.875
1765550910.6055841,0,0,7666,958.250
1765550910.6095874,0,0,12418,1552.250
1765550910.613589,0,0,13600,1700.000
1765550910.6175833,1,1,12384,1548.000
1765550910.621587,0,0,8426,1053.250
1765550910.625586,0,0,7261,907.625
1765550910.6295855,0,0,11981,1497.625
1765550910.6335871,0,0,13417,1677.125
1765550910.637585,1,1,12399,1549.875
1765550910.6415849,0,0,8648,1081.000
1765550910.6455832,0,0,7208,901.000
1765550910.6495802,0,0,11945,1493.125
1765550910.653587,0,0,13486,1685.750
1765550910.6575823,1,1,12498,1562.250
1765550910.6615877,0,0,8775,1096.875
1765550910.6655798,0,0,6673,834.125
1765550910.6695807,0,0,11279,1409.875
1765550910.673589,0,0,13146,1643.250
1765550910.6775813,1,1,12462,1557.750
1765550910.68158,0,0,9112,1139.000
1765550910.6855683,0,0,7054,881.750
1765550910.689567,0,0,11823,1477.875
1765550910.693667,0,0,13613,1701.625
1765550910.6976333,1,1,12700,1587.500
1765550910.7015946,0,0,9335,1166.875
1765550910.7055686,0,0,7001,875.125
1765550910.7095664,0,0,11757,1469.625
1765550910.7135835,0,0,13655,1706.875
1765550910.7175856,1,1,12781,1597.625
1765550910.7215855,0,0,9501,1187.625
1765550910.725572,0,0,6672,834.000
1765550910.7295675,0,0,11297,1412.125
1765550910.7335837,0,0,13436,1679.500
1765550910.737584,1,1,12772,1596.500
1765550910.741587,0,0,9671,1208.875
1765550910.7455862,0,0,6480,810.000
1765550910.7495844,0,0,11079,1384.875
1765550910.7537148,0,0,13402,1675.250
1765550910.7578623,1,1,12847,1605.875
1765550910.7616317,0,0,9729,1216.125
1765550910.7655861,0,0,5464,683.000
1765550910.7695837,0,0,9653,1206.625
1765550910.773584,0,0,12528,1566.000
1765550910.7775786,1,1,12601,1575.125
1765550910.7815833,0,0,10326,1290.750
1765550910.7855816,0,0,7377,922.125
1765550910.7895806,0,0,11992,1499.000
1765550910.7935827,0,0,14117,1764.625
1765550910.7975771,1,1,13205,1650.625
1765550910.8015833,0,0,10324,1290.500
1765550910.8055837,0,0,6334,791.750
1765550910.8095822,0,0,10688,1336.000
1765550910.813572,0,0,13399,1674.875
1765550910.8175762,1,1,13052,1631.500
1765550910.8215952,0,0,10543,1317.875
1765550910.8263144,0,0,6309,788.625
1765550910.829717,0,0,10537,1317.125
1765550910.8335958,0,0,13371,1671.375
1765550910.8375654,1,1,13101,1637.625
1765550910.8415723,0,0,10802,1350.250
1765550910.8455846,0,0,6668,833.500
1765550910.8495834,0,0,10851,1356.375
1765550910.8535745,0,0,13628,1703.500
1765550910.8575623,1,1,13240,1655.000
1765550910.861575,0,0,10948,1368.500
1765550910.8655837,0,0,6652,831.500
1765550910.8695831,0,0,10834,1354.250
1765550910.8735871,0,0,13741,1717.625
1765550910.8775816,1,1,13367,1670.875
1765550910.8815815,0,0,11176,1397.000
1765550910.8855836,0,0,6840,855.000
1765550910.8895812,0,0,10916,1364.500
1765550910.8936598,0,0,13861,1732.625
1765550910.897597,1,1,13465,1683.125
1765550910.9015908,0,0,11309,1413.625
1765550910.905565,0,0,6610,826.250
1765550910.9095645,0,0,10362,1295.250
1765550910.9135818,0,0,13522,1690.250
1765550910.917583,1,1,13390,1673.750
1765550910.9215808,0,0,11475,1434.375
1765550910.9255674,0,0,6751,843.875
1765550910.9295657,0,0,10341,1292.625
1765550910.93358,0,0,13569,1696.125
1765550910.9375834,1,1,13466,1683.250
1765550910.9415858,0,0,11624,1453.000
1765550910.9455767,0,0,6757,844.625
1765550910.9495764,0,0,10161,1270.125
1765550910.9535804,0,0,13514,1689.250
1765550910.9575877,1,1,13509,1688.625
1765550910.9615848,0,0,11784,1473.000
1765550910.965566,0,0,6962,870.250
1765550910.9695625,0,0,10394,1299.250
1765550910.9735818,0,0,13829,1728.625
1765550910.977581,1,1,13734,1716.750
1765550910.9815865,0,0,11946,1493.250
1765550910.9855673,0,0,6884,860.500
1765550910.9895625,0,0,9864,1233.000
1765550910.9935806,0,0,13404,1675.500
1765550910.9975808,1,1,13574,1696.750
1765550911.0016274,0,0,12050,1506.250
1765550911.0056195,0,0,7135,891.875
1765550911.0096035,0,0,10011,1251.375
1765550911.0136223,0,0,13586,1698.250
1765550911.0176213,1,1,13712,1714.000
1765550911.021627,0,0,12229,1528.625
1765550911.0256274,0,0,7816,977.000
1765550911.0296254,0,0,11126,1390.750
1765550911.033626,0,0,14639,1829.875
1765550911.03762,1,1,14283,1785.375
1765550911.0416262,0,0,12377,1547.125
1765550911.045609,0,0,7094,886.750
1765550911.0496056,0,0,9311,1163.875
1765550911.0536218,0,0,13153,1644.125
1765550911.0576217,1,1,13640,1705.000
1765550911.0616283,0,0,12394,1549.250
1765550911.0656047,0,0,7449,931.125
1765550911.0696042,0,0,9549,1193.625
1765550911.0736196,0,0,13375,1671.875
1765550911.077621,1,1,13786,1723.250
1765550911.0816221,0,0,12497,1562.125
1765550911.0856075,0,0,7562,945.250
1765550911.089605,0,0,9477,1184.625
1765550911.1001568,0,0,12616,1577.000
1765550911.102031,0,0,12616,1577.000
1765550911.105584,0,0,7952,994.000
1765550911.109581,0,0,10114,1264.250
1765550911.1135738,0,0,14122,1765.250
1765550911.1175632,1,1,14324,1790.500
1765550911.121574,0,0,12805,1600.625
1765550911.125578,0,0,7868,983.500
1765550911.1295798,0,0,9386,1173.250
1765550911.1335728,0,0,13505,1688.125
1765550911.13756,1,1,14074,1759.250
1765550911.1415699,0,0,12837,1604.625
1765550911.1455758,0,0,8071,1008.875
1765550911.1495755,0,0,9431,1178.875
1765550911.1535835,0,0,13630,1703.750
1765550911.1575766,1,1,14212,1776.500
1765550911.1615736,0,0,12953,1619.125
1765550911.165579,0,0,8280,1035.000
1765550911.169578,0,0,9494,1186.750
1765550911.173583,0,0,13786,1723.250
1765550911.177584,1,1,14371,1796.375
1765550911.1815808,0,0,13056,1632.000
1765550911.185561,0,0,8339,1042.375
1765550911.189558,0,0,9119,1139.875
1765550911.1935782,0,0,13469,1683.625
1765550911.1975777,1,1,14261,1782.625
1765550911.2015748,0,0,13090,1636.250
1765550911.2055628,0,0,8231,1028.875
1765550911.209562,0,0,12578,1572.250
1765550911.2135794,0,0,13852,1731.500
1765550911.2175796,1,1,13070,1633.750
1765550911.221582,0,0,8484,1060.500
1765550911.2255793,0,0,8194,1024.250
1765550911.2295752,0,0,12627,1578.375
1765550911.2335758,0,0,13944,1743.000
1765550911.2375793,1,1,13165,1645.625
1765550911.241578,0,0,8799,1099.875
1765550911.2455788,0,0,8430,1053.750
1765550911.2495754,0,0,12929,1616.125
1765550911.2535799,0,0,14194,1774.250
1765550911.2575753,1,1,13298,1662.250
1765550911.2615805,0,0,8979,1122.375
1765550911.2655797,0,0,8333,1041.625
1765550911.2695746,0,0,12872,1609.000
1765550911.2735782,0,0,14230,1778.750
1765550911.2775755,1,1,13365,1670.625
1765550911.2815783,0,0,8945,1118.125
1765550911.2855792,0,0,7342,917.750
1765550911.2895737,0,0,11759,1469.875
1765550911.293578,0,0,13639,1704.875
1765550911.2976522,1,1,13260,1657.500
1765550911.3016047,0,0,9304,1163.000
1765550911.3055663,0,0,7755,969.375
1765550911.3095622,0,0,12229,1528.625
1765550911.3135622,0,0,13979,1747.375
1765550911.3175583,1,1,13415,1676.875
1765550911.3215652,0,0,9593,1199.125
1765550911.3255644,0,0,7979,997.375
1765550911.3295612,0,0,12548,1568.500
1765550911.3335767,0,0,14258,1782.250
1765550911.3375764,1,1,13560,1695.000
1765550911.3415806,0,0,9774,1221.750
1765550911.3455749,0,0,7728,966.000
1765550911.3495758,0,0,12236,1529.500
1765550911.3535764,0,0,14129,1766.125
1765550911.3575785,1,1,13567,1695.875
1765550911.361577,0,0,10097,1262.125
1765550911.36556,0,0,8165,1020.625
1765550911.3695588,0,0,12777,1597.125
1765550911.3735783,0,0,14533,1816.625
1765550911.3775725,1,1,13740,1717.500
1765550911.3815768,0,0,10258,1282.250
1765550911.3855598,0,0,7899,987.375
1765550911.389559,0,0,12445,1555.625
1765550911.3935814,0,0,14394,1799.250
1765550911.3975737,1,1,13743,1717.875
1765550911.4015746,0,0,10408,1301.000
1765550911.4055765,0,0,7710,963.750
1765550911.4095762,0,0,12285,1535.625
1765550911.41358,0,0,14394,1799.250
1765550911.4175751,1,1,13808,1726.000
1765550911.421578,0,0,10480,1310.000
1765550911.425575,0,0,6956,869.500
1765550911.4295754,0,0,11305,1413.125
1765550911.4335778,0,0,13842,1730.250
1765550911.4375753,1,1,13676,1709.500
1765550911.4415748,0,0,10872,1359.000
1765550911.445575,0,0,7758,969.750
1765550911.449572,0,0,12224,1528.000
1765550911.4535778,0,0,14469,1808.625
1765550911.4575734,1,1,13919,1739.875
1765550911.4615796,0,0,10745,1343.125
1765550911.4655738,0,0,6090,761.250
1765550911.4695725,0,0,10066,1258.250
1765550911.473579,0,0,13161,1645.125
1765550911.4775746,1,1,13547,1693.375
1765550911.4815755,0,0,11280,1410.000
1765550911.4855607,0,0,7671,958.875
1765550911.4895582,0,0,11906,1488.250
1765550911.4935777,0,0,14381,1797.625
1765550911.4976494,1,1,13993,1749.125
1765550911.5015993,0,0,11329,1416.125
1765550911.505556,0,0,6947,868.375
1765550911.509557,0,0,10954,1369.250
1765550911.5135767,0,0,13850,1731.250
1765550911.5175738,1,1,13872,1734.000
1765550911.5215764,0,0,11523,1440.375
1765550911.5255616,0,0,6854,856.750
1765550911.529557,0,0,10668,1333.500
1765550911.5335724,0,0,13704,1713.000
1765550911.5375752,1,1,13869,1733.625
1765550911.541577,0,0,11781,1472.625
1765550911.5455723,0,0,7240,905.000
1765550911.5495696,0,0,10943,1367.875
1765550911.5535629,0,0,13885,1735.625
1765550911.557555,1,1,13943,1742.875
1765550911.5615652,0,0,11836,1479.500
1765550911.5655584,0,0,6747,843.375
1765550911.569559,0,0,10270,1283.750
1765550911.5735695,0,0,13565,1695.625
1765550911.5775683,1,1,13925,1740.625
1765550911.581578,0,0,12074,1509.250
1765550911.585574,0,0,6967,870.875
1765550911.5895712,0,0,10429,1303.625
1765550911.5935855,0,0,13765,1720.625
1765550911.5975704,1,1,14069,1758.625
1765550911.60162,0,0,12271,1533.875
1765550911.6056037,0,0,7090,886.250
1765550911.6095982,0,0,10406,1300.750
1765550911.6136162,0,0,13801,1725.125
1765550911.6176157,1,1,14129,1766.125
1765550911.6216168,0,0,12407,1550.875
1765550911.625597,0,0,6928,866.000
1765550911.6295962,0,0,9819,1227.375
1765550911.6336179,0,0,13362,1670.250
1765550911.6376154,1,1,13976,1747.000
1765550911.6416144,0,0,12522,1565.250
1765550911.6456172,0,0,6891,861.375
1765550911.6496177,0,0,9484,1185.500
1765550911.6536226,0,0,13161,1645.125
1765550911.657616,1,1,13945,1743.125
1765550911.661617,0,0,12721,1590.125
1765550911.6656144,0,0,7443,930.375
1765550911.6696162,0,0,9883,1235.375
1765550911.6736221,0,0,13350,1668.750
1765550911.677614,1,1,13986,1748.250
1765550911.6816132,0,0,12739,1592.375
1765550911.6856158,0,0,6965,870.625
1765550911.6896152,0,0,9052,1131.500
1765550911.6936193,0,0,12927,1615.875
1765550911.6976943,1,1,13949,1743.625
1765550911.7015977,0,0,12977,1622.125
1765550911.7055607,0,0,7657,957.125
1765550911.7095578,0,0,10055,1256.875
1765550911.713572,0,0,13832,1729.000
1765550911.7175732,1,1,14422,1802.750
1765550911.721571,0,0,13155,1644.375
1765550911.7255573,0,0,7480,935.000
1765550911.7295532,0,0,9269,1158.625
1765550911.7335844,0,0,13194,1649.250
1765550911.737572,1,1,14166,1770.750
1765550911.741577,0,0,13223,1652.875
1765550911.7455704,0,0,7775,971.875
1765550911.7495685,0,0,9456,1182.000
1765550911.7537062,0,0,13373,1671.625
1765550911.7578573,1,1,14286,1785.750
1765550911.7616208,0,0,13361,1670.125
1765550911.7655697,0,0,8172,1021.500
1765550911.7695656,0,0,10076,1259.500
1765550911.773569,0,0,14050,1756.250
1765550911.7775657,1,1,14699,1837.375
1765550911.781571,0,0,13519,1689.875
1765550911.785568,0,0,7895,986.875
1765550911.789566,0,0,8967,1120.875
1765550911.793567,0,0,13097,1637.125
1765550911.797569,1,1,14283,1785.375
1765550911.801578,0,0,13535,1691.875
1765550911.8055744,0,0,8085,1010.625
1765550911.8095627,0,0,8931,1116.375
1765550911.8135602,0,0,13129,1641.125
1765550911.8175595,1,1,14365,1795.625
1765550911.8215623,0,0,13655,1706.875
1765550911.825566,0,0,8981,1122.625
1765550911.829563,0,0,13152,1644.000
1765550911.8335657,0,0,14398,1799.750
1765550911.8375623,1,1,13721,1715.125
1765550911.8415651,0,0,8613,1076.625
1765550911.845567,0,0,8892,1111.500
1765550911.8495672,0,0,12948,1618.500
1765550911.8535624,0,0,14263,1782.875
1765550911.8575618,1,1,13708,1713.500
1765550911.861568,0,0,8581,1072.625
1765550911.8655677,0,0,8496,1062.000
1765550911.8695655,0,0,12769,1596.125
1765550911.8735647,0,0,14312,1789.000
1765550911.8775659,1,1,13857,1732.125
1765550911.8815696,0,0,8983,1122.875
1765550911.8855712,0,0,8847,1105.875
1765550911.8895667,0,0,13134,1641.750
1765550911.893573,0,0,14552,1819.000
1765550911.897641,1,1,13966,1745.750
1765550911.901591,0,0,9147,1143.375
1765550911.9055502,0,0,8648,1081.000
1765550911.9095545,0,0,12912,1614.000
1765550911.9135723,0,0,14461,1807.625
1765550911.9175663,1,1,13985,1748.125
1765550911.921564,0,0,9160,1145.000
1765550911.925555,0,0,8095,1011.875
1765550911.9295535,0,0,12442,1555.250
1765550911.9335716,0,0,14296,1787.000
1765550911.9375675,1,1,14029,1753.625
1765550911.941571,0,0,9502,1187.750
1765550911.9455705,0,0,8423,1052.875
1765550911.9495697,0,0,12858,1607.250
1765550911.9535835,0,0,14606,1825.750
1765550911.9575715,1,1,14175,1771.875
1765550911.9615672,0,0,9790,1223.750
1765550911.9655528,0,0,8636,1079.500
1765550911.9695554,0,0,13097,1637.125
1765550911.9735703,0,0,14789,1848.625
1765550911.9775693,1,1,14263,1782.875
1765550911.9815705,0,0,9812,1226.500
1765550911.9855523,0,0,7926,990.750
1765550911.9895513,0,0,12322,1540.250
1765550911.9935703,0,0,14391,1798.875
1765550911.997568,1,1,14201,1775.125
1765550912.0015678,0,0,10070,1258.750
1765550912.0055656,0,0,7853,981.625
1765550912.0095637,0,0,12158,1519.750
1765550912.0135744,0,0,14319,1789.875
1765550912.0175667,1,1,14214,1776.750
1765550912.0215743,0,0,10287,1285.875
1765550912.0255613,0,0,7845,980.625
1765550912.0295508,0,0,12185,1523.125
1765550912.0335674,0,0,14405,1800.625
1765550912.0375671,1,1,14287,1785.875
1765550912.041566,0,0,10509,1313.625
1765550912.0455678,0,0,7816,977.000
1765550912.0495646,0,0,12177,1522.125
1765550912.0535674,0,0,14475,1809.375
1765550912.0575655,1,1,14360,1795.000
1765550912.0615711,0,0,10755,1344.375
1765550912.0655527,0,0,7869,983.625
1765550912.069548,0,0,12223,1527.875
1765550912.073565,0,0,14557,1819.625
1765550912.077566,1,1,14425,1803.125
1765550912.081569,0,0,10864,1358.000
1765550912.0855684,0,0,7363,920.375
1765550912.0895615,0,0,11570,1446.250
1765550912.0935678,0,0,14201,1775.125
1765550912.102862,0,0,11092,1386.500
1765550912.1055882,0,0,7270,908.750
1765550912.1095717,0,0,11372,1421.500
1765550912.113564,0,0,14117,1764.625
1765550912.1175473,1,1,14359,1794.875
1765550912.1215606,0,0,11388,1423.500
1765550912.125569,0,0,7608,951.000
1765550912.1295667,0,0,11751,1468.875
1765550912.1335554,0,0,14422,1802.750
1765550912.1375465,1,1,14513,1814.125
1765550912.1415632,0,0,11382,1422.750
1765550912.1455712,0,0,6498,812.250
1765550912.1495683,0,0,10254,1281.750
1765550912.1535716,0,0,13504,1688.000
1765550912.1575708,1,1,14235,1779.375
1765550912.1615665,0,0,11961,1495.125
1765550912.1655536,0,0,8326,1040.750
1765550912.169552,0,0,12542,1567.750
1765550912.1735673,0,0,15053,1881.625
1765550912.177564,1,1,14803,1850.375
1765550912.1815674,0,0,11965,1495.625
1765550912.1855536,0,0,7244,905.500
1765550912.189551,0,0,11112,1389.000
1765550912.1935706,0,0,14202,1775.250
1765550912.197561,1,1,14567,1820.875
1765550912.201561,0,0,12262,1532.750
1765550912.2055655,0,0,7677,959.625
1765550912.2095668,0,0,11353,1419.125
1765550912.2135682,0,0,14302,1787.750
1765550912.2175615,1,1,14575,1821.875
1765550912.2215698,0,0,12306,1538.250
1765550912.2255647,0,0,7196,899.500
1765550912.229564,0,0,10648,1331.000
1765550912.233566,0,0,13905,1738.125
1765550912.2375643,1,1,14486,1810.750
1765550912.2415633,0,0,12528,1566.000
1765550912.2455635,0,0,7360,920.000
1765550912.249559,0,0,10582,1322.750
1765550912.2535634,0,0,13834,1729.250
1765550912.2575634,1,1,14462,1807.750
1765550912.2615676,0,0,12635,1579.375
1765550912.265564,0,0,7193,899.125
1765550912.2695613,0,0,10412,1301.500
1765550912.2735662,0,0,13889,1736.125
1765550912.2775626,1,1,14595,1824.375
1765550912.2815647,0,0,12932,1616.500
1765550912.285563,0,0,7663,957.875
1765550912.2895596,0,0,10932,1366.500
1765550912.293565,0,0,14319,1789.875
1765550912.2975633,1,1,14806,1850.750
1765550912.3016384,0,0,12973,1621.625
1765550912.305584,0,0,6782,847.750
1765550912.3095655,0,0,9232,1154.000
1765550912.313557,0,0,13056,1632.000
1765550912.3175504,1,1,14316,1789.500
1765550912.3215551,0,0,13144,1643.000
1765550912.3255677,0,0,7238,904.750
1765550912.329562,0,0,9630,1203.750
1765550912.333554,0,0,13373,1671.625
1765550912.3375468,1,1,14478,1809.750
1765550912.3415582,0,0,13337,1667.125
1765550912.3455672,0,0,7534,941.750
1765550912.3495615,0,0,9731,1216.375
1765550912.353566,0,0,13417,1677.125
1765550912.3575652,1,1,14503,1812.875
1765550912.361588,0,0,13403,1675.375
1765550912.3655527,0,0,7178,897.250
1765550912.3695467,0,0,8968,1121.000
1765550912.373565,0,0,12948,1618.500
1765550912.3775601,1,1,14388,1798.500
1765550912.3815677,0,0,13606,1700.750
1765550912.3855503,0,0,7661,957.625
1765550912.3895454,0,0,9410,1176.250
1765550912.393563,0,0,13319,1664.875
1765550912.3975623,1,1,14593,1824.125
1765550912.4015682,0,0,13727,1715.875
1765550912.4055688,0,0,7511,938.875
1765550912.4095628,0,0,8876,1109.500
1765550912.4135644,0,0,12954,1619.250
1765550912.4175606,1,1,14489,1811.125
1765550912.4215634,0,0,13872,1734.000
1765550912.4255655,0,0,7944,993.000
1765550912.429562,0,0,9235,1154.375
1765550912.4335673,0,0,13243,1655.375
1765550912.4375591,1,1,14638,1829.750
1765550912.4415643,0,0,8003,1000.375
1765550912.445566,0,0,8975,1121.875
1765550912.4495628,0,0,13079,1634.875
1765550912.453568,0,0,14617,1827.125
1765550912.4575596,1,1,14127,1765.875
1765550912.4615617,0,0,8460,1057.500
1765550912.4655583,0,0,9187,1148.375
1765550912.4695623,0,0,13113,1639.125
1765550912.4735663,0,0,14582,1822.750
1765550912.4775586,1,1,14121,1765.125
1765550912.4815624,0,0,8272,1034.000
1765550912.4855638,0,0,8717,1089.625
1765550912.4895625,0,0,12936,1617.000
1765550912.4935646,0,0,14645,1830.625
1765550912.497562,1,1,14303,1787.875
1765550912.5016346,0,0,8565,1070.625
1765550912.5055754,0,0,8767,1095.875
1765550912.5095632,0,0,12993,1624.125
1765550912.513556,0,0,14716,1839.500
1765550912.5175462,1,1,14402,1800.250
1765550912.5215542,0,0,8783,1097.875
1765550912.52556,0,0,8758,1094.750
1765550912.529558,0,0,12984,1623.000
1765550912.5335627,0,0,14736,1842.000
1765550912.5375605,1,1,14471,1808.875
1765550912.5415602,0,0,9047,1130.875
1765550912.545563,0,0,8882,1110.250
1765550912.5495572,0,0,13192,1649.000
1765550912.553562,0,0,14921,1865.125
1765550912.5575602,1,1,14601,1825.125
1765550912.5615652,0,0,9194,1149.250
1765550912.5655458,0,0,8657,1082.125
1765550912.5695393,0,0,12986,1623.250
1765550912.573542,0,0,14855,1856.875
1765550912.5775456,1,1,14655,1831.875
1765550912.581559,0,0,9544,1193.000
1765550912.5855565,0,0,8879,1109.875
1765550912.5895584,0,0,13169,1646.125
1765550912.593563,0,0,14966,1870.750
1765550912.5975583,1,1,14709,1838.625
1765550912.6015637,0,0,9674,1209.250
1765550912.6055644,0,0,8690,1086.250
1765550912.6095574,0,0,13035,1629.375
1765550912.6135612,0,0,14958,1869.750
1765550912.6175587,1,1,14778,1847.250
1765550912.6215653,0,0,9909,1238.625
1765550912.6255617,0,0,8552,1069.000
1765550912.62956,0,0,12785,1598.125
1765550912.633557,0,0,14803,1850.375
1765550912.6375406,1,1,14740,1842.500
1765550912.64155,0,0,9881,1235.125
1765550912.645562,0,0,7855,981.875
1765550912.649561,0,0,12104,1513.000
1765550912.6535482,0,0,14487,1810.875
1765550912.6575387,1,1,14722,1840.250
1765550912.661552,0,0,10080,1260.000
1765550912.665562,0,0,7570,946.250
1765550912.6695604,0,0,11729,1466.125
1765550912.673561,0,0,14302,1787.750
1765550912.6775565,1,1,14716,1839.500
1765550912.6815581,0,0,10512,1314.000
1765550912.6855595,0,0,8206,1025.750
1765550912.689559,0,0,12474,1559.250
1765550912.6935616,0,0,14805,1850.625
1765550912.6975567,1,1,14912,1864.000
1765550912.7016313,0,0,10654,1331.750
1765550912.7055697,0,0,7893,986.625
1765550912.7095618,0,0,12141,1517.625
1765550912.7135541,0,0,14665,1833.125
1765550912.717541,1,1,14914,1864.250
1765550912.7215502,0,0,10910,1363.750
1765550912.725561,0,0,7912,989.000
1765550912.7295592,0,0,12113,1514.125
1765550912.7335527,0,0,14681,1835.125
1765550912.7375395,1,1,14948,1868.500
1765550912.7415497,0,0,11098,1387.250
1765550912.7455556,0,0,7725,965.625
1765550912.7495568,0,0,11840,1480.000
1765550912.7536948,1,1,14548,1818.500
1765550912.7578444,1,1,14938,1867.250
1765550912.7616107,0,0,11337,1417.125
1765550912.765558,0,0,7745,968.125
1765550912.7695527,0,0,11824,1478.000
1765550912.7735643,0,0,14583,1822.875
1765550912.7775507,1,1,14983,1872.875
1765550912.7815552,0,0,11554,1444.250
1765550912.785551,0,0,7654,956.750
1765550912.7895494,0,0,11703,1462.875
1765550912.7935617,0,0,14569,1821.125
1765550912.797558,1,1,15018,1877.250
1765550912.8015642,0,0,11811,1476.375
1765550912.805564,0,0,7827,978.375
1765550912.809557,0,0,11894,1486.750
1765550912.8135507,0,0,14743,1842.875
1765550912.8175461,1,1,15117,1889.625
1765550912.8215532,0,0,11731,1466.375
1765550912.8255565,0,0,6350,793.750
1765550912.8295534,0,0,9342,1167.750
1765550912.8335617,0,0,12882,1610.250
1765550912.8375545,1,1,14387,1798.375
1765550912.8415606,0,0,12403,1550.375
1765550912.845563,0,0,8749,1093.625
1765550912.8495555,0,0,12843,1605.375
1765550912.8535583,0,1,15421,1927.625
1765550912.8575559,1,1,15386,1923.250
1765550912.861556,0,0,12494,1561.750
1765550912.865556,0,0,7969,996.125
1765550912.8695538,0,0,11803,1475.375
1765550912.8735676,0,1,14802,1850.250
1765550912.8775563,1,1,15210,1901.250
1765550912.8815618,0,0,12590,1573.750
1765550912.8855588,0,0,7391,923.875
1765550912.8895533,0,0,10878,1359.750
1765550912.893558,0,1,14214,1776.750
1765550912.8975558,1,1,15031,1878.875
1765550912.9016352,0,0,12753,1594.125
1765550912.905588,0,0,7171,896.375
1765550912.909554,0,0,10251,1281.375
1765550912.9135485,1,1,13747,1718.375
1765550912.9175391,1,1,14855,1856.875
1765550912.9215484,0,0,12975,1621.875
1765550912.925558,0,0,7544,943.000
1765550912.9295547,0,0,10818,1352.250
1765550912.9335463,1,1,14264,1783.000
1765550912.9375362,1,1,15121,1890.125
1765550912.9415505,0,0,13187,1648.375
1765550912.9455552,0,0,7531,941.375
1765550912.9495568,0,0,10668,1333.500
1765550912.9535606,1,1,14214,1776.750
1765550912.9575522,1,1,15142,1892.750
1765550912.961555,0,0,13292,1661.500
1765550912.9655588,0,0,7116,889.500
1765550912.9695542,0,0,9561,1195.125
1765550912.9735618,1,1,13317,1664.625
1765550912.977557,1,1,14760,1845.000
1765550912.9815578,0,0,13425,1678.125
1765550912.9855363,0,0,7263,907.875
1765550912.9895387,0,0,9547,1193.375
1765550912.9935544,1,1,13329,1666.125
1765550912.9975505,1,1,14791,1848.875
1765550913.001554,0,0,13661,1707.625
1765550913.0055428,0,0,7734,966.750
1765550913.0095408,0,0,10173,1271.625
1765550913.0135586,1,1,13900,1737.500
1765550913.017563,1,1,15092,1886.500
1765550913.021555,0,0,13903,1737.875
1765550913.0255535,0,0,8058,1007.250
1765550913.0295546,0,0,10504,1313.000
1765550913.0335603,1,1,14216,1777.000
1765550913.037554,1,1,15267,1908.375
1765550913.0415666,0,0,14051,1756.375
1765550913.0455477,0,0,8034,1004.250
1765550913.0495389,0,0,10189,1273.625
1765550913.053554,1,1,14011,1751.375
1765550913.057565,1,1,14186,1773.250
1765550913.0615566,0,0,8277,1034.625
1765550913.0655398,0,0,10138,1267.250
1765550913.069535,0,0,13878,1734.750
1765550913.0735624,1,1,15116,1889.500
1765550913.0775528,1,1,14205,1775.625
1765550913.0815563,0,0,7999,999.875
1765550913.0855405,0,0,9466,1183.250
1765550913.0895355,0,0,13443,1680.375
1765550913.0935524,1,1,14992,1874.000
1765550913.0975533,1,1,14378,1797.250
1765550913.106927,0,0,10148,1268.500
1765550913.1095743,0,0,14054,1756.750
1765550913.1135528,1,1,15313,1914.125
1765550913.117539,1,1,14512,1814.000
1765550913.1215498,0,0,8426,1053.250
1765550913.1255534,0,0,9609,1201.125
1765550913.1295514,0,0,13674,1709.250
1765550913.1335456,1,1,15189,1898.625
1765550913.1375372,1,1,14605,1825.625
1765550913.141549,0,0,8533,1066.625
1765550913.1455534,0,0,9312,1164.000
1765550913.1495512,0,0,13400,1675.000
1765550913.1535532,1,1,15077,1884.625
1765550913.1575532,1,1,14679,1834.875
1765550913.161553,0,0,8843,1105.375
1765550913.1655557,0,0,9514,1189.250
1765550913.1695523,0,0,13572,1696.500
1765550913.173553,1,1,15176,1897.000
1765550913.1775465,1,1,14766,1845.750
1765550913.1815562,0,0,8892,1111.500
1765550913.1855545,0,0,9159,1144.875
1765550913.1895516,0,0,13274,1659.250
1765550913.1935506,1,1,15064,1883.000
1765550913.1975484,1,1,14825,1853.125
1765550913.201555,0,0,9043,1130.375
1765550913.2055538,0,0,8905,1113.125
1765550913.2095509,0,0,13004,1625.500
1765550913.2135532,1,1,14937,1867.125
1765550913.2175474,1,1,14864,1858.000
1765550913.2215533,0,0,9244,1155.500
1765550913.225552,0,0,8929,1116.125
1765550913.229551,0,0,13106,1638.250
1765550913.2335532,1,1,15060,1882.500
1765550913.237547,1,1,14990,1873.750
1765550913.2415516,0,0,9639,1204.875
1765550913.2455528,0,0,9350,1168.750
1765550913.2495546,0,0,13535,1691.875
1765550913.2535534,1,1,15319,1914.875
1765550913.2575452,1,1,15102,1887.750
1765550913.2615547,0,0,9950,1243.750
1765550913.265551,0,0,9672,1209.000
1765550913.2695496,0,0,13883,1735.375
1765550913.2735496,1,1,15540,1942.500
1765550913.2775483,1,1,15194,1899.250
1765550913.281551,0,0,9771,1221.375
1765550913.285552,0,0,8603,1075.375
1765550913.2895503,0,0,12828,1603.500
1765550913.2935545,1,1,15008,1876.000
1765550913.2975473,1,1,15123,1890.375
1765550913.3015974,0,0,10019,1252.375
1765550913.3056881,0,0,8495,1061.875
1765550913.3096092,0,0,12659,1582.375
1765550913.3135924,1,1,14929,1866.125
1765550913.3175755,1,1,15149,1893.625
1765550913.321584,0,0,10471,1308.875
1765550913.325593,0,0,9047,1130.875
1765550913.3295896,0,0,13194,1649.250
1765550913.3335834,1,1,15244,1905.500
1765550913.3375819,1,1,15251,1906.375
1765550913.3415883,0,0,10587,1323.375
1765550913.3455951,0,0,8938,1117.250
1765550913.3495908,0,0,13199,1649.875
1765550913.3535998,1,1,15336,1917.000
1765550913.3576016,1,1,15342,1917.750
1765550913.361598,0,0,10674,1334.250
1765550913.3655734,0,0,8490,1061.250
1765550913.3695753,0,0,12743,1592.875
1765550913.3735964,1,1,15125,1890.625
1765550913.3775914,1,1,15324,1915.500
1765550913.3815992,0,0,10967,1370.875
1765550913.3855762,0,0,8559,1069.875
1765550913.3895729,0,0,12735,1591.875
1765550913.3935947,1,1,15128,1891.000
1765550913.3975923,1,1,15341,1917.625
1765550913.4015574,0,0,11144,1393.000
1765550913.405555,0,0,8457,1057.125
1765550913.409544,0,0,12637,1579.625
1765550913.4135408,1,1,15118,1889.750
1765550913.4175324,1,1,15370,1921.250
1765550913.4215388,0,0,11305,1413.125
1765550913.4255474,0,0,8114,1014.250
1765550913.4295454,0,0,12186,1523.250
1765550913.4335494,1,1,14877,1859.625
1765550913.437546,1,1,15326,1915.750
1765550913.4415503,0,0,11524,1440.500
1765550913.4455519,0,0,7973,996.625
1765550913.4495497,0,0,11980,1497.500
1765550913.4535491,1,1,14797,1849.625
1765550913.4575431,1,1,15338,1917.250
1765550913.46155,0,0,11945,1493.125
1765550913.4655497,0,0,8800,1100.000
1765550913.469547,0,0,12933,1616.625
1765550913.4735482,1,1,15414,1926.750
1765550913.4775438,1,1,15545,1943.125
1765550913.4815533,0,0,11897,1487.125
1765550913.4855518,0,0,7728,966.000
1765550913.4895463,0,0,11571,1446.375
1765550913.4935496,1,1,14602,1825.250
1765550913.4975436,1,1,15319,1914.875
1765550913.501596,0,0,12252,1531.500
1765550913.505666,0,0,8171,1021.375
1765550913.5096025,0,0,12049,1506.125
1765550913.5135899,1,1,14934,1866.750
1765550913.5175703,1,1,15450,1931.250
1765550913.5215816,0,0,12156,1519.500
1765550913.525594,0,0,6839,854.875
1765550913.5295925,0,0,9844,1230.500
1765550913.5335817,1,1,13362,1670.250
1765550913.5375714,1,1,14852,1856.500
1765550913.5415838,0,0,12627,1578.375
1765550913.5455928,0,0,8155,1019.375
1765550913.5495927,0,0,11820,1477.500
1765550913.553596,1,1,14860,1857.500
1765550913.557637,1,1,15480,1935.000
1765550913.5616143,0,0,12807,1600.875
1765550913.56558,0,0,7754,969.250
1765550913.5695748,0,0,11242,1405.250
1765550913.5735896,1,1,14544,1818.000
1765550913.5775883,1,1,15419,1927.375
1765550913.5815938,0,0,13015,1626.875
1765550913.5855722,0,0,7741,967.625
1765550913.5895734,0,0,11143,1392.875
1765550913.59359,1,1,14533,1816.625
1765550913.5975878,1,1,15448,1931.000
1765550913.6015496,0,0,13201,1650.125
1765550913.6055462,0,0,7632,954.000
1765550913.6095495,0,0,10716,1339.500
1765550913.613551,1,1,14208,1776.000
1765550913.6175454,1,1,15315,1914.375
1765550913.621552,0,0,13428,1678.500
1765550913.6255493,0,0,8032,1004.000
1765550913.6295452,0,0,11229,1403.625
1765550913.6335523,1,1,14640,1830.000
1765550913.6375463,1,1,15522,1940.250
1765550913.641551,0,0,13593,1699.125
1765550913.6455464,0,0,7819,977.375
1765550913.6495435,0,0,10673,1334.125
1765550913.653547,1,1,14250,1781.250
1765550913.6575456,1,1,15380,1922.500
1765550913.6615505,0,0,13724,1715.500
1765550913.6655467,0,0,7678,959.750
1765550913.6695418,0,0,10021,1252.625
1765550913.6735475,1,1,15118,1889.750
1765550913.6775427,1,1,13893,1736.625
1765550913.6815503,0,0,8205,1025.625
1765550913.6855485,0,0,10899,1362.375
1765550913.6895432,0,0,14495,1811.875
1765550913.6935463,1,1,15539,1942.375
1765550913.697544,1,1,14172,1771.500
1765550913.7015982,0,0,8574,1071.750
1765550913.7056623,0,0,11265,1408.125
1765550913.7095957,0,0,14802,1850.250
1765550913.7135844,1,1,15687,1960.875
1765550913.7175665,1,1,14273,1784.125
1765550913.721581,0,0,8364,1045.500
1765550913.7255921,0,0,10732,1341.500
1765550913.72959,0,0,14437,1804.625
1765550913.7335773,1,1,15556,1944.500
1765550913.7375677,1,1,14394,1799.250
1765550913.7415812,0,0,8478,1059.750
1765550913.7455902,0,0,10678,1334.750
1765550913.749589,0,0,14442,1805.250
1765550913.7537086,1,1,15589,1948.625
1765550913.7579076,0,0,14543,1817.875
1765550913.761655,0,0,8838,1104.750
1765550913.7655954,0,0,11040,1380.000
1765550913.7695954,0,0,14746,1843.250
1765550913.773593,1,1,15736,1967.000
1765550913.7775855,1,1,14657,1832.125
1765550913.7815902,0,0,8720,1090.000
1765550913.7855875,0,0,10461,1307.625
1765550913.789585,0,0,14296,1787.000
1765550913.7935898,1,1,15559,1944.875
1765550913.7975838,1,1,14758,1844.750
1765550913.8015485,0,0,9053,1131.625
1765550913.8055542,0,0,10721,1340.125
1765550913.8095431,0,0,14521,1815.125
1765550913.813534,1,1,15670,1958.750
1765550913.8182173,0,0,14839,1854.875
1765550913.8227525,0,0,9110,1138.750
1765550913.8259022,0,0,10643,1330.375
1765550913.8301694,0,0,14550,1818.750
1765550913.8363416,1,1,15732,1966.500
1765550913.8383718,0,0,14952,1869.000
1765550913.8415806,0,0,9378,1172.250
1765550913.8455403,0,0,11036,1379.500
1765550913.8495295,0,0,15007,1875.875
1765550913.8535318,1,1,16019,2002.375
1765550913.8575294,1,1,15070,1883.750
1765550913.8615324,0,0,8936,1117.000
1765550913.865529,0,0,9406,1175.750
1765550913.869527,0,0,13480,1685.000
1765550913.8735318,1,1,15257,1907.125
1765550913.8775256,1,1,14994,1874.250
1765550913.8815417,0,0,9237,1154.625
1765550913.8855379,0,0,9668,1208.500
1765550913.889531,0,0,13775,1721.875
1765550913.8935313,1,1,15457,1932.125
1765550913.8975246,1,1,15124,1890.500
1765550913.9015336,0,0,9328,1166.000
1765550913.9057343,0,0,9289,1161.125
1765550913.9095433,0,0,13410,1676.250
1765550913.9135315,1,1,15296,1912.000
1765550913.917529,1,1,15180,1897.500
1765550913.9215362,0,0,9859,1232.375
1765550913.9255292,0,0,10098,1262.250
1765550913.9295282,0,0,14217,1777.125
1765550913.9335277,1,1,15743,1967.875
1765550913.9375296,1,1,15321,1915.125
1765550913.941542,0,0,9870,1233.750
1765550913.9455435,0,0,9681,1210.125
1765550913.9495401,0,0,13871,1733.875
1765550913.953541,1,1,15614,1951.750
1765550913.9575384,1,1,15356,1919.500
1765550913.961538,0,0,9985,1248.125
1765550913.965528,0,0,9315,1164.375
1765550913.9695272,0,0,13474,1684.250
1765550913.973542,1,1,15412,1926.500
1765550913.9775403,1,1,15339,1917.375
1765550913.9815435,0,0,9939,1242.375
1765550913.9855373,0,0,8600,1075.000
1765550913.9895353,0,0,12784,1598.000
1765550913.9935393,1,1,15090,1886.250
1765550913.9975371,1,1,15332,1916.500
1765550914.0015395,0,0,10303,1287.875
1765550914.0055277,0,0,8865,1108.125
1765550914.0095246,0,0,13032,1629.000
1765550914.013538,1,1,15255,1906.875
1765550914.0175393,1,1,15418,1927.250
1765550914.02154,0,0,10552,1319.000
1765550914.0255468,0,0,8920,1115.000
1765550914.0295405,0,0,13102,1637.750
1765550914.0335464,1,1,15340,1917.500
1765550914.0375392,1,1,15492,1936.500
1765550914.0415473,0,0,10710,1338.750
1765550914.0455446,0,0,8654,1081.750
1765550914.049539,0,0,12838,1604.750
1765550914.0535426,1,1,15238,1904.750
1765550914.0575416,1,1,15509,1938.625
1765550914.0615482,0,0,11025,1378.125
1765550914.065528,0,0,8939,1117.375
1765550914.0695221,0,0,13100,1637.500
1765550914.0735452,1,1,15402,1925.250
1765550914.0775394,1,0,15574,1946.750
1765550914.081546,0,0,10996,1374.500
1765550914.0855532,0,0,8018,1002.250
1765550914.0895426,0,0,11990,1498.750
1765550914.0935447,1,1,14756,1844.500
1765550914.09754,1,1,15410,1926.250
1765550914.1015444,0,0,11419,1427.375
1765550914.1109214,0,0,15266,1908.250
1765550914.1136682,1,1,15266,1908.250
1765550914.1175444,1,0,15604,1950.500
1765550914.1215467,0,0,11523,1440.375
1765550914.1255307,0,0,8257,1032.125
1765550914.1295285,0,0,12322,1540.250
1765550914.1335402,1,1,15084,1885.500
1765550914.1375377,1,0,15600,1950.000
1765550914.1415398,0,0,11927,1490.875
1765550914.1455245,0,0,8642,1080.250
1765550914.1495268,0,0,12610,1576.250
1765550914.1535473,1,1,15243,1905.375
1765550914.1575413,0,0,15639,1954.875
1765550914.1615465,0,0,12122,1515.250
1765550914.1655495,0,0,8819,1102.375
1765550914.169819,0,0,12865,1608.125
1765550914.1735451,1,1,15458,1932.250
1765550914.1775236,0,0,15737,1967.125
1765550914.1815314,0,0,12150,1518.750
1765550914.1855416,0,0,7827,978.375
1765550914.189542,0,0,11368,1421.000
1765550914.1935325,1,1,14451,1806.375
1765550914.1975243,1,0,15385,1923.125
1765550914.2015297,0,0,12565,1570.625
1765550914.2055378,0,0,8742,1092.750
1765550914.2095363,0,0,12559,1569.875
1765550914.213541,1,1,15304,1913.000
1765550914.2175364,0,0,15714,1964.250
1765550914.2215414,0,0,12640,1580.000
1765550914.225538,0,0,8190,1023.750
1765550914.2295349,0,0,11899,1487.375
1765550914.2335415,1,1,14960,1870.000
1765550914.2375386,0,0,15643,1955.375
1765550914.2415407,0,0,12928,1616.000
1765550914.2455378,0,0,8533,1066.625
1765550914.2495337,0,0,12270,1533.750
1765550914.2535393,1,1,15244,1905.500
1765550914.2575347,0,0,15769,1971.125
1765550914.2615392,0,0,12928,1616.000
1765550914.2655373,0,0,7541,942.625
1765550914.269534,0,0,10702,1337.750
1765550914.2735393,1,1,14161,1770.125
1765550914.2775345,0,0,15364,1920.500
1765550914.281541,0,0,13366,1670.750
1765550914.285538,0,0,12476,1559.500
1765550914.289535,0,0,15414,1926.750
1765550914.293533,1,1,15843,1980.375
1765550914.2975345,0,0,13394,1674.250
1765550914.3015819,0,0,7997,999.625
1765550914.305604,0,0,11199,1399.875
1765550914.3096724,0,0,14611,1826.375
1765550914.3135993,1,1,15588,1948.500
1765550914.3175676,0,0,13639,1704.875
1765550914.3215773,0,0,8285,1035.625
1765550914.3255844,0,0,11331,1416.375
1765550914.329584,0,0,14686,1835.750
1765550914.3335707,1,1,15614,1951.750
1765550914.3375628,0,0,13757,1719.625
1765550914.341572,0,0,8054,1006.750
1765550914.3455894,0,0,10881,1360.125
1765550914.349583,0,0,14428,1803.500
1765550914.3535855,1,1,15557,1944.625
1765550914.357582,0,0,13950,1743.750
1765550914.361588,0,0,8248,1031.000
1765550914.365587,0,0,10996,1374.500
1765550914.3698792,0,0,14539,1817.375
1765550914.3735769,1,1,15620,1952.500
1765550914.3775628,0,0,14192,1774.000
1765550914.3815746,0,0,8819,1102.375
1765550914.3855846,0,0,11604,1450.500
1765550914.3895833,0,0,14963,1870.375
1765550914.3935742,1,1,15779,1972.375
1765550914.3975637,0,0,14281,1785.125
1765550914.4015362,0,0,8523,1065.375
1765550914.4055405,0,0,11078,1384.750
1765550914.409537,0,0,14684,1835.500
1765550914.4135427,1,1,15728,1966.000
1765550914.4175363,0,0,14365,1795.625
1765550914.421536,0,0,8075,1009.375
1765550914.425537,0,0,9987,1248.375
1765550914.4295373,0,0,13841,1730.125
1765550914.433541,1,1,15388,1923.500
1765550914.437535,0,0,14525,1815.625
1765550914.4415407,0,0,8668,1083.500
1765550914.4455216,0,0,10664,1333.000
1765550914.449522,0,0,14365,1795.625
1765550914.45354,1,1,15621,1952.625
1765550914.4575365,0,0,14632,1829.000
1765550914.4615405,0,0,8424,1053.000
1765550914.4655375,0,0,10012,1251.500
1765550914.4695365,0,0,13907,1738.375
1765550914.4735396,1,1,15462,1932.750
1765550914.4775355,0,0,14777,1847.125
1765550914.481539,0,0,8729,1091.125
1765550914.485539,0,0,10059,1257.375
1765550914.4895375,0,0,13896,1737.000
1765550914.493541,1,1,15458,1932.250
1765550914.4975398,0,0,14827,1853.375
1765550914.501539,0,0,8516,1064.500
1765550914.505537,0,0,9334,1166.750
1765550914.5097332,0,0,13303,1662.875
1765550914.513552,1,1,15205,1900.625
1765550914.517524,0,0,14925,1865.625
1765550914.5215304,0,0,8907,1113.375
1765550914.5255377,0,0,9804,1225.500
1765550914.529537,0,0,13787,1723.375
1765550914.5335314,1,1,15490,1936.250
1765550914.5375202,0,0,15110,1888.750
1765550914.541533,0,0,9219,1152.375
1765550914.5455377,0,0,9992,1249.000
1765550914.5495346,0,0,13960,1745.000
1765550914.5535378,1,1,15597,1949.625
1765550914.557535,0,0,15198,1899.750
1765550914.5615406,0,0,9293,1161.625
1765550914.5655491,0,0,9781,1222.625
1765550914.5697842,0,0,13802,1725.250
1765550914.5735233,1,1,15554,1944.250
1765550914.5775213,0,0,15266,1908.250
1765550914.5815234,0,0,9218,1152.250
1765550914.585538,0,0,9009,1126.125
1765550914.5895338,0,0,13052,1631.500
1765550914.5935261,1,1,15184,1898.000
1765550914.5975206,0,0,15262,1907.750
1765550914.6015246,0,0,9478,1184.750
1765550914.6055212,0,0,9208,1151.000
1765550914.6095173,0,0,13303,1662.875
1765550914.6135182,1,1,15364,1920.500
1765550914.6175177,0,0,15378,1922.250
1765550914.621532,0,0,9471,1183.875
1765550914.6255348,0,0,8468,1058.500
1765550914.6295314,0,0,12483,1560.375
1765550914.633535,1,1,14919,1864.875
1765550914.6375287,0,0,15333,1916.625
1765550914.641535,0,0,9823,1227.875
1765550914.6455367,0,0,8743,1092.875
1765550914.6495352,0,0,12756,1594.500
1765550914.6535351,1,1,15098,1887.250
1765550914.6575282,0,0,15447,1930.875
1765550914.6615355,0,0,10071,1258.875
1765550914.6655338,0,0,8898,1112.250
1765550914.6695313,0,0,12985,1623.125
1765550914.6735327,1,1,15281,1910.125
1765550914.677528,0,0,15550,1943.750
1765550914.6815357,0,0,10019,1252.375
1765550914.6855373,0,0,7953,994.125
1765550914.689529,0,0,11860,1482.500
1765550914.6935358,1,1,14639,1829.875
1765550914.697531,0,0,15427,1928.375
1765550914.7015815,0,0,10324,1290.500
1765550914.7055752,0,0,8165,1020.625
1765550914.7098002,0,0,12101,1512.625
1765550914.7135894,1,1,14819,1852.375
1765550914.7175589,0,0,15543,1942.875
1765550914.7215688,0,0,10650,1331.250
1765550914.725579,0,0,8392,1049.000
1765550914.7295747,0,0,12398,1549.750
1765550914.733569,1,1,15049,1881.125
1765550914.737562,0,0,15659,1957.375
1765550914.7415657,0,0,10778,1347.250
1765550914.7455747,0,0,8090,1011.250
1765550914.7495718,0,0,12010,1501.250
1765550914.758145,0,0,15632,1954.000
1765550914.7600846,0,0,10914,1364.250
1765550914.7619345,0,0,10914,1364.250
1765550914.7655568,0,0,7686,960.750
1765550914.7695558,0,0,11414,1426.750
1765550914.7738802,1,1,14475,1809.375
1765550914.7775676,0,0,15552,1944.000
1765550914.7815638,0,0,11256,1407.000
1765550914.785554,0,0,7886,985.750
1765550914.7895539,0,0,11617,1452.125
1765550914.7935784,1,1,14636,1829.500
1765550914.7975767,0,0,15641,1955.125
1765550914.801542,0,0,11554,1444.250
1765550914.8055353,0,0,8121,1015.125
1765550914.8095193,0,0,11945,1493.125
1765550914.8135278,1,1,14908,1863.500
1765550914.8175182,0,0,15776,1972.000
1765550914.821529,0,0,11762,1470.250
1765550914.8255315,0,0,7772,971.500
1765550914.8295312,0,0,11311,1413.875
1765550914.8335385,1,1,14474,1809.250
1765550914.8375342,0,0,15634,1954.250
1765550914.8415391,0,0,11848,1481.000
1765550914.8455205,0,0,7423,927.875
1765550914.8495154,0,0,10751,1343.875
1765550914.8535402,1,1,14117,1764.625
1765550914.8575351,0,0,15533,1941.625
1765550914.8615396,0,0,12165,1520.625
1765550914.865536,0,0,7612,951.500
1765550914.8695295,0,0,10906,1363.250
1765550914.8735328,1,1,14246,1780.750
1765550914.8775287,0,0,15604,1950.500
1765550914.8815367,0,0,12346,1543.250
1765550914.885536,0,0,7412,926.500
1765550914.8895307,0,0,10494,1311.750
1765550914.8935332,1,1,13974,1746.750
1765550914.8975296,0,0,15524,1940.500
1765550914.9015334,0,0,8063,1007.875
1765550914.9055328,0,0,11496,1437.000
1765550914.909725,0,0,14768,1846.000
1765550914.9135432,1,1,15874,1984.250
1765550914.9175148,0,0,12868,1608.500
1765550914.9215212,0,0,7498,937.250
1765550914.9255333,0,0,10372,1296.500
1765550914.9295335,0,0,13930,1741.250
1765550914.9335227,1,1,15543,1942.875
1765550914.937511,0,0,13024,1628.000
1765550914.9415238,0,0,7510,938.750
1765550914.945535,0,0,10324,1290.500
1765550914.949531,0,0,13940,1742.500
1765550914.953538,1,1,15572,1946.500
1765550914.95753,0,0,13306,1663.250
1765550914.961803,0,0,7706,963.250
1765550914.9655218,0,0,10467,1308.375
1765550914.9695182,0,0,14064,1758.000
1765550914.9735332,1,1,15639,1954.875
1765550914.9775286,0,0,13494,1686.750
1765550914.9815323,0,0,7578,947.250
1765550914.9855146,0,0,9974,1246.750
1765550914.9895134,0,0,13670,1708.750
1765550914.9935312,1,1,15477,1934.625
1765550914.9975314,0,0,13749,1718.625
1765550915.0015326,0,0,7880,985.000
1765550915.0055344,0,0,10384,1298.000
1765550915.009534,0,0,14047,1755.875
1765550915.0135312,1,1,15674,1959.250
1765550915.017529,0,0,13899,1737.375
1765550915.0215328,0,0,7731,966.375
1765550915.0255306,0,0,9937,1242.125
1765550915.0295286,0,0,13712,1714.000
1765550915.033535,1,1,15547,1943.375
1765550915.0375288,0,0,14038,1754.750
1765550915.0415323,0,0,7568,946.000
1765550915.0455322,0,0,9122,1140.250
1765550915.049526,0,0,12978,1622.250
1765550915.0535343,1,1,15193,1899.125
1765550915.057532,0,0,14275,1784.375
1765550915.0615401,0,0,8257,1032.125
1765550915.0655146,0,0,10561,1320.125
1765550915.0695117,0,0,14321,1790.125
1765550915.0735312,1,1,15880,1985.000
1765550915.0775297,0,0,14599,1824.875
1765550915.0815344,0,0,8291,1036.375
1765550915.0855305,0,0,10190,1273.750
1765550915.089525,0,0,13983,1747.875
1765550915.0935264,1,1,15722,1965.250
1765550915.0975292,0,0,14650,1831.250
1765550915.1015327,0,0,8071,1008.875
1765550915.105529,0,0,9358,1169.750
1765550915.1148903,1,1,15375,1921.875
1765550915.117641,0,0,14817,1852.125
1765550915.121542,0,0,8554,1069.250
1765550915.1255193,0,0,10153,1269.125
1765550915.1295125,0,0,14012,1751.500
1765550915.1335275,1,1,15782,1972.750
1765550915.137523,0,0,14977,1872.125
1765550915.1415315,0,0,8343,1042.875
1765550915.1455152,0,0,9290,1161.250
1765550915.149513,0,0,13221,1652.625
1765550915.153529,1,1,15396,1924.500
1765550915.1575224,0,0,15022,1877.750
1765550915.1615317,0,0,8457,1057.125
1765550915.165528,0,0,9158,1144.750
1765550915.1695268,0,0,13104,1638.000
1765550915.1735256,1,1,15354,1919.250
1765550915.1775236,0,0,15175,1896.875
1765550915.1815312,0,0,8800,1100.000
1765550915.1855268,0,0,9570,1196.250
1765550915.189524,0,0,13529,1691.125
1765550915.1935246,1,1,15601,1950.125
1765550915.1975086,0,0,15325,1915.625
1765550915.201516,0,0,8763,1095.375
1765550915.205527,0,0,8934,1116.750
1765550915.209524,0,0,12887,1610.875
1765550915.2135296,1,1,15278,1909.750
1765550915.2175238,0,0,15351,1918.875
1765550915.2215266,0,0,8832,1104.000
1765550915.2255285,0,0,8459,1057.375
1765550915.229524,0,0,12355,1544.375
1765550915.2335289,1,1,14981,1872.625
1765550915.2375212,0,0,15413,1926.625
1765550915.241527,0,0,9311,1163.875
1765550915.2455266,0,0,9220,1152.500
1765550915.2495236,0,0,13175,1646.875
1765550915.2535257,1,1,15471,1933.875
1765550915.2575212,0,0,15631,1953.875
1765550915.2615252,0,0,9480,1185.000
1765550915.2655237,0,0,9127,1140.875
1765550915.269523,0,0,13091,1636.375
1765550915.273528,1,1,15446,1930.750
1765550915.2775223,0,0,15712,1964.000
1765550915.2815237,0,0,9754,1219.250
1765550915.2855232,0,0,9420,1177.500
1765550915.2895236,0,0,13454,1681.750
1765550915.2935274,1,1,15689,1961.125
1765550915.297521,0,0,15845,1980.625
1765550915.3015728,0,0,9751,1218.875
1765550915.305616,0,0,8569,1071.125
1765550915.3095708,0,0,12441,1555.125
1765550915.3136861,1,1,15094,1886.750
1765550915.3175683,0,0,15734,1966.750
1765550915.3215737,0,0,9944,1243.000
1765550915.3255515,0,0,8531,1066.375
1765550915.3295503,0,0,12415,1551.875
1765550915.3335702,1,1,15113,1889.125
1765550915.3375714,0,0,15810,1976.250
1765550915.3415759,0,0,10176,1272.000
1765550915.3455617,0,0,8639,1079.875
1765550915.3495476,0,0,12577,1572.125
1765550915.3535688,1,1,15253,1906.625
1765550915.3575723,0,0,15931,1991.375
1765550915.3615758,0,0,10482,1310.250
1765550915.3655746,0,0,8793,1099.125
1765550915.3695672,0,0,12751,1593.875
1765550915.3735728,1,1,15386,1923.250
1765550915.3775706,0,0,16019,2002.375
1765550915.3815746,0,0,10708,1338.500
1765550915.3855703,0,0,8812,1101.500
1765550915.3895667,0,0,12764,1595.500
1765550915.3935707,1,1,15414,1926.750
1765550915.3975701,0,0,16060,2007.500
1765550915.4015326,0,0,10712,1339.000
1765550915.405527,0,0,7989,998.625
1765550915.409525,0,0,11676,1459.500
1765550915.4135273,1,1,14734,1841.750
1765550915.4175234,0,0,15877,1984.625
1765550915.4215307,0,0,11000,1375.000
1765550915.4255238,0,0,8135,1016.875
1765550915.4296114,0,0,11822,1477.750
1765550915.433519,1,1,14851,1856.375
1765550915.437506,0,0,15957,1994.625
1765550915.4415174,0,0,11219,1402.375
1765550915.4455276,0,0,8092,1011.500
1765550915.4495249,0,0,11765,1470.625
1765550915.4535131,1,1,14855,1856.875
1765550915.4575067,0,0,16003,2000.375
1765550915.461513,0,0,11486,1435.750
1765550915.4655285,0,0,8140,1017.500
1765550915.4695256,0,0,11792,1474.000
1765550915.473513,1,1,14900,1862.500
1765550915.4775064,0,0,16051,2006.375
1765550915.481514,0,0,11805,1475.625
1765550915.4855258,0,0,8365,1045.625
1765550915.4895258,0,0,12032,1504.000
1765550915.4935281,1,1,15073,1884.125
1765550915.4975224,0,0,16128,2016.000
1765550915.5015235,0,0,11947,1493.375
1765550915.5055263,0,0,8058,1007.250
1765550915.5095248,0,0,11576,1447.000
1765550915.5137343,1,1,16061,2007.625
1765550915.5175383,0,0,12202,1525.250
1765550915.5215306,0,0,8046,1005.750
1765550915.5255105,0,0,11459,1432.375
1765550915.5295079,0,0,14729,1841.125
1765550915.533523,1,1,16048,2006.000
1765550915.5375276,0,0,12566,1570.750
1765550915.5415266,0,0,8550,1068.750
1765550915.545506,0,0,12194,1524.250
1765550915.5495062,0,0,15293,1911.625
1765550915.5535243,1,1,16285,2035.625
1765550915.557525,0,0,12673,1584.125
1765550915.5617864,0,0,8054,1006.750
1765550915.5655093,0,0,11382,1422.750
1765550915.569508,0,0,14746,1843.250
1765550915.573526,1,1,16093,2011.625
1765550915.577525,0,0,12984,1623.000
1765550915.581527,0,0,8416,1052.000
1765550915.5855043,0,0,11875,1484.375
1765550915.5895045,0,0,15129,1891.125
1765550915.593522,1,1,16253,2031.625
1765550915.5975237,0,0,13124,1640.500
1765550915.601538,0,0,7944,993.000
1765550915.6055245,0,0,10902,1362.750
1765550915.6095207,0,0,14399,1799.875
1765550915.6135268,1,1,15957,1994.625
1765550915.6175306,0,0,13389,1673.625
1765550915.6215255,0,0,8374,1046.750
1765550915.6255257,0,0,11559,1444.875
1765550915.62952,0,0,14930,1866.250
1765550915.6335227,1,1,16187,2023.375
1765550915.637506,0,0,13555,1694.375
1765550915.6415186,0,0,8006,1000.750
1765550915.6455066,0,0,10745,1343.125
1765550915.6495023,0,0,14322,1790.250
1765550915.653519,1,1,15943,1992.875
1765550915.657521,0,0,13718,1714.750
1765550915.661524,0,0,8062,1007.750
1765550915.66553,0,0,10711,1338.875
1765550915.6695154,0,0,14323,1790.375
1765550915.6735215,1,1,15959,1994.875
1765550915.6775167,0,0,13910,1738.750
1765550915.6815333,0,0,8050,1006.250
1765550915.6855228,0,0,10489,1311.125
1765550915.6895165,0,0,14157,1769.625
1765550915.6935203,1,1,15890,1986.250
1765550915.6975257,0,0,14133,1766.625
1765550915.701571,0,0,8251,1031.375
1765550915.7055726,0,0,10709,1338.625
1765550915.7095618,0,0,14369,1796.125
1765550915.713774,1,1,16003,2000.375
1765550915.717581,0,0,14325,1790.625
1765550915.721587,0,0,8267,1033.375
1765550915.7255504,0,0,10567,1320.875
1765550915.7295487,0,0,14285,1785.625
1765550915.7335637,1,1,15985,1998.125
1765550915.7375736,0,0,14493,1811.625
1765550915.7415664,0,0,8259,1032.375
1765550915.745548,0,0,10300,1287.500
1765550915.7495446,0,0,14076,1759.500
1765550915.7580802,0,0,14512,1814.000
1765550915.760018,0,0,7789,973.625
1765550915.7618694,0,0,7789,973.625
1765550915.765547,0,0,8818,1102.250
1765550915.7695467,0,0,12712,1589.000
1765550915.7735515,1,1,15230,1903.750
1765550915.777542,0,0,14643,1830.375
1765550915.781563,0,0,8214,1026.750
1765550915.785552,0,0,9561,1195.125
1765550915.7895463,0,0,13452,1681.500
1765550915.7935464,1,1,15640,1955.000
1765550915.7975447,0,0,14969,1871.125
1765550915.8015103,0,0,8588,1073.500
1765550915.8055215,0,0,10097,1262.125
1765550915.8095052,0,0,13972,1746.500
1765550915.8136935,1,1,15920,1990.000
1765550915.8175066,0,0,15140,1892.500
1765550915.8215065,0,0,8498,1062.250
1765550915.8255117,0,0,9407,1175.875
1765550915.8295035,0,0,13304,1663.000
1765550915.833502,1,1,15581,1947.625
1765550915.8375022,0,0,15224,1903.000
1765550915.8415186,0,0,8701,1087.625
1765550915.845501,0,0,9538,1192.250
1765550915.8495092,0,0,13454,1681.750
1765550915.853518,1,1,15682,1960.250
1765550915.857521,0,0,15393,1924.125
1765550915.8615253,0,0,8891,1111.375
1765550915.865529,0,0,9502,1187.750
1765550915.8695154,0,0,13399,1674.875
1765550915.873524,1,1,15654,1956.750
1765550915.8775182,0,0,15500,1937.500
1765550915.8815334,0,0,8998,1124.750
1765550915.8855033,0,0,9362,1170.250
1765550915.8895,0,0,13294,1661.750
1765550915.893521,1,1,15629,1953.625
1765550915.8975322,0,0,15616,1952.000
1765550915.9015222,0,0,9216,1152.000
1765550915.905521,0,0,9556,1194.500
1765550915.9095147,0,0,13537,1692.125
1765550915.9137335,1,1,15792,1974.000
1765550915.9175339,0,0,15737,1967.125
1765550915.9215205,0,0,9088,1136.000
1765550915.9255035,0,0,8408,1051.000
1765550915.929512,0,0,12254,1531.750
1765550915.933517,1,1,15061,1882.625
1765550915.9375181,0,0,15648,1956.000
1765550915.9415224,0,0,9415,1176.875
1765550915.9455163,0,0,8971,1121.375
1765550915.949499,0,0,12910,1613.750
1765550915.9535222,1,1,15474,1934.250
1765550915.9575174,0,0,15867,1983.375
1765550915.9615214,0,0,9595,1199.375
1765550915.9655225,0,0,8767,1095.875
1765550915.9695172,0,0,12666,1583.250
1765550915.9735196,1,1,15350,1918.750
1765550915.9775152,0,0,15918,1989.750
1765550915.9815218,0,0,9802,1225.250
1765550915.9855137,0,0,8709,1088.625
1765550915.989518,0,0,12589,1573.625
1765550915.99352,1,1,15321,1915.125
1765550915.9975154,0,0,15995,1999.375
1765550916.0015197,0,0,10154,1269.250
1765550916.005521,0,0,9144,1143.000
1765550916.0095172,0,0,13100,1637.500
1765550916.013524,1,1,15650,1956.250
1765550916.0175128,0,0,16166,2020.750
1765550916.021519,0,0,10404,1300.500
1765550916.0255158,0,0,9224,1153.000
1765550916.0295167,0,0,13208,1651.000
1765550916.0335126,1,1,15740,1967.500
1765550916.037521,0,0,16253,2031.625
1765550916.041522,0,0,10659,1332.375
1765550916.0455065,0,0,9305,1163.125
1765550916.0495002,0,0,13290,1661.250
1765550916.0535157,1,1,15808,1976.000
1765550916.057514,0,0,16307,2038.375
1765550916.0615184,0,0,10718,1339.750
1765550916.0654988,0,0,8865,1108.125
1765550916.0695002,0,0,12783,1597.875
1765550916.0735242,1,1,15521,1940.125
1765550916.077513,0,0,16267,2033.375
1765550916.0815146,0,0,10965,1370.625
1765550916.0855129,0,0,8722,1090.250
1765550916.0895205,0,0,12526,1565.750
1765550916.0935156,1,1,15363,1920.375
1765550916.0975144,0,0,16250,2031.250
1765550916.1015146,0,0,11256,1407.000
1765550916.1055133,0,0,8947,1118.375
1765550916.1095097,0,0,12812,1601.500
1765550916.1189566,0,0,11545,1443.125
1765550916.121647,0,0,9176,1147.000
1765550916.1255097,0,0,9176,1147.000
1765550916.1295104,0,0,13114,1639.250
1765550916.1335113,1,1,15804,1975.500
1765550916.1375136,0,0,11669,1458.625
1765550916.1415176,0,0,8811,1101.375
1765550916.1455097,0,0,12639,1579.875
1765550916.149575,0,0,15524,1940.500
1765550916.1535244,1,1,16399,2049.875
1765550916.157515,0,0,11860,1482.500
1765550916.1615193,0,0,8574,1071.750
1765550916.1655138,0,0,12258,1532.250
1765550916.1695106,0,0,15283,1910.375
1765550916.1735146,1,1,16328,2041.000
1765550916.1775126,0,0,12062,1507.750
1765550916.181517,0,0,8506,1063.250
1765550916.1855159,0,0,12112,1514.000
1765550916.1895106,0,0,15202,1900.250
1765550916.1935148,1,1,16321,2040.125
1765550916.1975138,0,0,12351,1543.875
1765550916.2015219,0,0,8571,1071.375
1765550916.20552,0,0,12131,1516.375
1765550916.2097545,0,0,15236,1904.500
1765550916.213511,1,1,16351,2043.875
1765550916.2174983,0,0,12574,1571.750
1765550916.2215064,0,0,8597,1074.625
1765550916.2255201,0,0,12139,1517.375
1765550916.2295141,0,0,15272,1909.000
1765550916.2335043,1,1,16379,2047.375
1765550916.237496,0,0,12647,1580.875
1765550916.2415056,0,0,8040,1005.000
1765550916.2455118,0,0,11223,1402.875
1765550916.249512,0,0,14640,1830.000
1765550916.253513,1,1,16153,2019.125
1765550916.2575076,0,0,12981,1622.625
1765550916.2615144,0,0,8462,1057.750
1765550916.2655122,0,0,11816,1477.000
1765550916.2695105,0,0,15101,1887.625
1765550916.2735105,1,1,16352,2044.000
1765550916.2775075,0,0,13137,1642.125
1765550916.2815142,0,0,8135,1016.875
1765550916.285513,0,0,11150,1393.750
1765550916.2895083,0,0,14620,1827.500
1765550916.293513,1,1,16169,2021.125
1765550916.2975078,0,0,13337,1667.125
1765550916.301512,0,0,8017,1002.125
1765550916.3055344,0,0,10768,1346.000
1765550916.3095195,0,0,14332,1791.500
1765550916.3135073,1,1,16053,2006.625
1765550916.317699,0,0,13492,1686.500
1765550916.3215165,0,0,7996,999.500
1765550916.3254986,0,0,10640,1330.000
1765550916.3294978,0,0,14265,1783.125
1765550916.3335128,1,1,16044,2005.500
1765550916.3375118,0,0,13828,1728.500
1765550916.3415148,0,0,8362,1045.250
1765550916.3454986,0,0,11141,1392.625
1765550916.349495,0,0,14692,1836.500
1765550916.3535142,1,1,16249,2031.125
1765550916.357514,0,0,13971,1746.375
1765550916.3615165,0,0,8042,1005.250
1765550916.365517,0,0,10312,1289.000
1765550916.369514,0,0,14027,1753.375
1765550916.3735123,1,1,15959,1994.875
1765550916.3775127,0,0,14139,1767.375
1765550916.381514,0,0,8243,1030.375
1765550916.385513,0,0,10629,1328.625
1765550916.3895097,0,0,14338,1792.250
1765550916.3937838,1,1,16124,2015.500
1765550916.3975184,0,0,14430,1803.750
1765550916.4015179,0,0,8393,1049.125
1765550916.4055004,0,0,10585,1323.125
1765550916.409495,0,0,14286,1785.750
1765550916.4135137,1,1,16091,2011.375
1765550916.4175134,0,0,14656,1832.000
1765550916.4215167,0,0,8722,1090.250
1765550916.4254951,0,0,11073,1384.125
1765550916.429493,0,0,14721,1840.125
1765550916.4335115,1,1,16299,2037.375
1765550916.4375126,0,0,14777,1847.125
1765550916.441514,0,0,8460,1057.500
1765550916.4455159,0,0,10333,1291.625
1765550916.4495103,0,0,14131,1766.375
1765550916.4535143,1,1,16043,2005.375
1765550916.4575078,0,0,14900,1862.500
1765550916.461515,0,0,8550,1068.750
1765550916.4655144,0,0,10307,1288.375
1765550916.4695077,0,0,14138,1767.250
1765550916.4735105,1,1,16069,2008.625
1765550916.4775105,0,0,15034,1879.250
1765550916.481515,0,0,8409,1051.125
1765550916.4855137,0,0,9565,1195.625
1765550916.4895067,0,0,13450,1681.250
1765550916.4935117,1,1,15719,1964.875
1765550916.4975076,0,0,15294,1911.750
1765550916.5015168,0,0,9586,1198.250
1765550916.5055099,0,0,11652,1456.500
1765550916.5095084,0,0,15258,1907.250
1765550916.5135121,1,1,16587,2073.375
1765550916.5177157,0,0,15378,1922.250
1765550916.521537,0,0,8492,1061.500
1765550916.5254984,0,0,8874,1109.250
1765550916.5294964,0,0,12735,1591.875
1765550916.5335138,1,1,15338,1917.250
1765550916.5375109,0,0,15367,1920.875
1765550916.541514,0,0,9171,1146.375
1765550916.545497,0,0,10265,1283.125
1765550916.5494936,0,0,14146,1768.250
1765550916.5535111,1,1,16117,2014.625
1765550916.557509,0,0,15666,1958.250
1765550916.561514,0,0,9243,1155.375
1765550916.5654957,0,0,10063,1257.875
1765550916.569495,0,0,13986,1748.250
1765550916.5736434,1,1,16053,2006.625
1765550916.5775096,0,0,15782,1972.750
1765550916.5815125,0,0,9520,1190.000
1765550916.5854957,0,0,10356,1294.500
1765550916.5894926,0,0,14297,1787.125
1765550916.593507,1,1,16236,2029.500
1765550916.5975065,0,0,15895,1986.875
1765550916.6015131,0,0,9396,1174.500
1765550916.6054935,0,0,9540,1192.500
1765550916.6094925,0,0,13486,1685.750
1765550916.6135104,1,1,15819,1977.375
1765550916.6175108,0,0,15904,1988.000
1765550916.6215117,0,0,9622,1202.750
1765550916.6255102,0,0,9438,1179.750
1765550916.6295106,0,0,13310,1663.750
1765550916.6335132,1,1,15700,1962.500
1765550916.6375105,0,0,15944,1993.000
1765550916.6415126,0,0,9792,1224.000
1765550916.6455107,0,0,9560,1195.000
1765550916.6495078,0,0,13524,1690.500
1765550916.6535022,1,1,15871,1983.875
1765550916.657494,0,0,16089,2011.125
1765550916.661505,0,0,9989,1248.625
1765550916.665505,0,0,9477,1184.625
1765550916.6695073,0,0,13430,1678.750
1765550916.673514,1,1,15832,1979.000
1765550916.677509,0,0,16153,2019.125
1765550916.6815124,0,0,10187,1273.375
1765550916.6854956,0,0,9492,1186.500
1765550916.6894903,0,0,13465,1683.125
1765550916.6935084,1,1,15880,1985.000
1765550916.6975071,0,0,16223,2027.875
1765550916.7015092,0,0,10202,1275.250
1765550916.7055063,0,0,8805,1100.625
1765550916.7095015,0,0,12657,1582.125
1765550916.7135067,1,1,15409,1926.125
1765550916.717715,0,0,16164,2020.500
1765550916.7215362,0,0,10621,1327.625
1765550916.7254963,0,0,9403,1175.375
1765550916.7294915,0,0,13327,1665.875
1765550916.7335095,1,1,15818,1977.250
1765550916.7375102,0,0,16324,2040.500
1765550916.7415142,0,0,10752,1344.000
1765550916.7454932,0,0,9113,1139.125
1765550916.7494903,0,0,13023,1627.875
1765550916.7537014,1,1,16361,2045.125
1765550916.7578585,0,0,11298,1412.250
1765550916.7615612,0,0,10185,1273.125
1765550916.7655017,0,0,14274,1784.250
1765550916.7694917,0,0,16450,2056.250
1765550916.773489,1,1,16601,2075.125
1765550916.7774882,0,0,11128,1391.000
1765550916.7814922,0,0,9009,1126.125
1765550916.7854893,0,0,12934,1616.750
1765550916.78949,0,0,15679,1959.875
1765550916.7935076,1,1,16418,2052.250
1765550916.797503,0,0,11392,1424.000
1765550916.8015478,0,0,8950,1118.750
1765550916.8056548,0,0,12780,1597.500
1765550916.8095195,0,0,15579,1947.375
1765550916.8135011,1,1,16401,2050.125
1765550916.8176103,0,0,11570,1446.250
1765550916.8221295,0,0,8904,1113.000
1765550916.8255763,0,0,12746,1593.250
1765550916.829497,0,0,15594,1949.250
1765550916.833513,1,1,16447,2055.875
1765550916.8375072,0,0,11758,1469.750
1765550916.8415103,0,0,8575,1071.875
1765550916.845492,0,0,12249,1531.125
1765550916.8494904,0,0,15286,1910.750
1765550916.8535156,1,1,16370,2046.250
1765550916.8575063,0,0,12041,1505.125
1765550916.8615112,0,0,8709,1088.625
1765550916.865509,0,0,12373,1546.625
1765550916.8695111,0,0,15383,1922.875
1765550916.8735096,1,1,16412,2051.500
1765550916.8775067,0,0,12117,1514.625
1765550916.8815093,0,0,8272,1034.000
1765550916.885507,0,0,11737,1467.125
1765550916.889509,0,0,14983,1872.875
1765550916.893511,1,1,16299,2037.375
1765550916.8975077,0,0,12470,1558.750
1765550916.90151,0,0,8667,1083.375
1765550916.9055047,0,0,12244,1530.500
1765550916.9095042,0,0,15355,1919.375
1765550916.9135115,1,1,16452,2056.500
1765550916.917716,0,0,12622,1577.750
1765550916.9215333,0,0,8353,1044.125
1765550916.925489,0,0,11740,1467.500
1765550916.929489,0,0,15035,1879.375
1765550916.9335122,1,1,16354,2044.250
1765550916.9375098,0,0,12806,1600.750
1765550916.9415061,0,0,8086,1010.750
1765550916.9454913,0,0,11157,1394.625
1765550916.9494882,0,0,14610,1826.250
1765550916.9535081,1,1,16194,2024.250
1765550916.9575067,0,0,13147,1643.375
1765550916.9615145,0,0,8602,1075.250
1765550916.9655042,0,0,11908,1488.500
1765550916.9695015,0,0,15190,1898.750
1765550916.9735062,1,1,16437,2054.625
1765550916.977777,0,0,13404,1675.500
1765550916.981516,0,0,8759,1094.875
1765550916.9854932,0,0,12173,1521.625
1765550916.9894876,0,0,15444,1930.500
1765550916.9935048,1,1,16564,2070.500
1765550916.9975047,0,0,13592,1699.000
1765550917.0015125,0,0,8458,1057.250
1765550917.0054905,0,0,11508,1438.500
1765550917.0094845,0,0,14952,1869.000
1765550917.0135067,1,1,16360,2045.000
1765550917.017504,0,0,13833,1729.125
1765550917.021515,0,0,8706,1088.250
1765550917.0255084,0,0,11819,1477.375
1765550917.0295036,0,0,15214,1901.750
1765550917.0335088,1,1,16474,2059.250
1765550917.0375035,0,0,14048,1756.000
1765550917.0415108,0,0,8683,1085.375
1765550917.045507,0,0,11623,1452.875
1765550917.0495067,0,0,15077,1884.625
1765550917.0535078,1,1,16419,2052.375
1765550917.057502,0,0,14218,1777.250
1765550917.0615094,0,0,8674,1084.250
1765550917.0654893,0,0,11469,1433.625
1765550917.0694883,0,0,14978,1872.250
1765550917.0735023,1,1,16387,2048.375
1765550917.0775018,0,0,14363,1795.375
1765550917.0815048,0,0,8527,1065.875
1765550917.0855036,0,0,11026,1378.250
1765550917.0895028,0,0,14645,1830.625
1765550917.0935066,1,1,16246,2030.750
1765550917.0974996,0,0,14530,1816.250
1765550917.1015048,0,0,8564,1070.500
1765550917.1055048,0,0,10886,1360.750
1765550917.1095011,0,0,14558,1819.750
1765550917.1135066,1,1,16222,2027.750
1765550917.1228755,0,0,8768,1096.000
1765550917.125605,0,0,11108,1388.500
1765550917.12951,0,0,14779,1847.375
1765550917.1334946,1,1,16336,2042.000
1765550917.1374867,0,0,14918,1864.750
1765550917.1414936,0,0,8786,1098.250
1765550917.1454973,0,0,10928,1366.000
1765550917.1495755,0,0,14656,1832.000
1765550917.1534982,1,1,16297,2037.125
1765550917.1574864,0,0,15001,1875.125
1765550917.161488,0,0,8519,1064.875
1765550917.1654842,0,0,10023,1252.875
1765550917.1694853,0,0,13862,1732.750
1765550917.1734989,1,1,15925,1990.625
1765550917.1774988,0,0,15155,1894.375
1765550917.181503,0,0,8921,1115.125
1765550917.185501,0,0,10603,1325.375
1765550917.1894956,0,0,14394,1799.250
1765550917.1935034,1,1,16194,2024.250
1765550917.1974976,0,0,15296,1912.000
1765550917.2015033,0,0,8673,1084.125
1765550917.205496,0,0,9562,1195.250
1765550917.2095203,0,0,13407,1675.875
1765550917.2137659,1,1,15699,1962.375
1765550917.217507,0,0,15263,1907.875
1765550917.2215095,0,0,8460,1057.500
1765550917.2254832,0,0,8580,1072.500
1765550917.2294805,0,0,12459,1557.375
1765550917.2334948,1,1,15217,1902.125
1765550917.2374861,0,0,15460,1932.500
1765550917.2414868,0,0,9583,1197.875
1765550917.245482,0,0,10952,1369.000
1765550917.249484,0,0,14771,1846.375
1765550917.2534976,1,1,16447,2055.875
1765550917.2574983,0,0,15793,1974.125
1765550917.2615016,0,0,9254,1156.750
1765550917.2655046,0,0,9877,1234.625
1765550917.2694957,0,0,13806,1725.750
1765550917.2734945,1,1,15984,1998.000
1765550917.2774987,0,0,15847,1980.875
1765550917.2815037,0,0,9586,1198.250
1765550917.2855,0,0,10144,1268.000
1765550917.289495,0,0,14058,1757.250
1765550917.2934992,1,1,16121,2015.125
1765550917.297496,0,0,15929,1991.125
1765550917.3015015,0,0,9472,1184.000
1765550917.3055122,0,0,9461,1182.625
1765550917.3095076,0,0,13391,1673.875
1765550917.3134923,1,1,15780,1972.500
1765550917.31748,0,0,15949,1993.625
1765550917.3215787,0,0,9638,1204.750
1765550917.3255215,0,0,9388,1173.500
1765550917.3295035,0,0,13357,1669.625
1765550917.3334937,1,1,15802,1975.250
1765550917.3374813,0,0,16047,2005.875
1765550917.3414922,0,0,9638,1204.750
1765550917.3455055,0,0,8532,1066.500
1765550917.3495002,0,0,12316,1539.500
1765550917.3534873,1,1,15181,1897.625
1765550917.3574817,0,0,15958,1994.750
1765550917.3614914,0,0,9994,1249.250
1765550917.3655002,0,0,12912,1614.000
1765550917.3695,0,0,15556,1944.500
1765550917.373767,1,1,16136,2017.000
1765550917.377503,0,0,10100,1262.500
1765550917.3815029,0,0,8773,1096.625
1765550917.3854883,0,0,12615,1576.875
1765550917.3894837,0,0,15412,1926.500
1765550917.393502,1,1,16183,2022.875
1765550917.3974955,0,0,10412,1301.500
1765550917.4015024,0,0,8938,1117.250
1765550917.405481,0,0,12776,1597.000
1765550917.4094813,0,0,15524,1940.500
1765550917.4135034,1,1,16288,2036.000
1765550917.4175003,0,0,10670,1333.750
1765550917.4215038,0,0,8970,1121.250
1765550917.4255002,0,0,12811,1601.375
1765550917.4294984,0,0,15571,1946.375
1765550917.4335048,1,1,16352,2044.000
1765550917.4374983,0,0,10840,1355.000
1765550917.4415014,0,0,8759,1094.875
1765550917.4455006,0,0,12536,1567.000
1765550917.4494967,0,0,15418,1927.250
1765550917.4535022,1,1,16346,2043.250
1765550917.4574986,0,0,10974,1371.750
1765550917.4614983,0,0,8398,1049.750
1765550917.465501,0,0,12041,1505.125
1765550917.4694958,0,0,15124,1890.500
1765550917.4735005,1,1,16305,2038.125
1765550917.4774997,0,0,11314,1414.250
1765550917.481504,0,0,8753,1094.125
1765550917.4854984,0,0,12468,1558.500
1765550917.4894958,0,0,15421,1927.625
1765550917.4935045,1,1,16444,2055.500
1765550917.4975,0,0,11622,1452.750
1765550917.501504,0,0,9015,1126.875
1765550917.5055003,0,0,12790,1598.750
1765550917.5094957,0,0,15647,1955.875
1765550917.5134995,1,1,16541,2067.625
1765550917.5174987,0,0,11691,1461.375
1765550917.5217006,0,0,8388,1048.500
1765550917.5254996,0,0,11917,1489.625
1765550917.529481,0,0,15092,1886.500
1765550917.5334966,1,1,16376,2047.000
1765550917.5375,0,0,11923,1490.375
1765550917.541502,0,0,8428,1053.500
1765550917.5454826,0,0,11942,1492.750
1765550917.549479,0,0,15136,1892.000
1765550917.5535,1,1,16426,2053.250
1765550917.5574968,0,0,12177,1522.125
1765550917.5614996,0,0,8411,1051.375
1765550917.5654798,0,0,11842,1480.250
1765550917.5694785,0,0,15083,1885.375
1765550917.573496,1,1,16427,2053.375
1765550917.577492,0,0,12379,1547.375
1765550917.5815089,0,0,8233,1029.125
1765550917.585486,0,0,11488,1436.000
1765550917.5894804,0,0,14847,1855.875
1765550917.5934968,1,1,16356,2044.500
1765550917.5974944,0,0,12610,1576.250
1765550917.6015007,0,0,8290,1036.250
1765550917.6054823,0,0,11502,1437.750
1765550917.6094801,0,0,14872,1859.000
1765550917.6134992,1,1,16377,2047.125
1765550917.6174946,0,0,12857,1607.125
